# TOPAS Version: 3.7
# Parameter File: EnergyFluenceTesting.txt
# Results for scorer EnergyFluence
# Scored in component: Phantom
# X in 1 bin  of 10 cm
# Y in 1 bin  of 10 cm
# Z in 300 bins of 0.0333333 cm
# EnergyFluence ( MeV/mm2 ) : Sum   
0, 0, 0, 49.14284133911133
0, 0, 1, 49.77922058105469
0, 0, 2, 50.37288284301758
0, 0, 3, 50.88475036621094
0, 0, 4, 51.37731170654297
0, 0, 5, 51.88821411132812
0, 0, 6, 52.37256240844727
0, 0, 7, 52.83957672119141
0, 0, 8, 53.28544616699219
0, 0, 9, 53.76007843017578
0, 0, 10, 54.22715377807617
0, 0, 11, 54.66229248046875
0, 0, 12, 55.1331672668457
0, 0, 13, 55.57536315917969
0, 0, 14, 56.02256011962891
0, 0, 15, 56.42529678344727
0, 0, 16, 56.86555480957031
0, 0, 17, 57.33289337158203
0, 0, 18, 57.71845245361328
0, 0, 19, 58.12356948852539
0, 0, 20, 58.5455207824707
0, 0, 21, 58.96056365966797
0, 0, 22, 59.36407470703125
0, 0, 23, 59.79886245727539
0, 0, 24, 60.18700408935547
0, 0, 25, 60.61552047729492
0, 0, 26, 61.03443145751953
0, 0, 27, 61.43171310424805
0, 0, 28, 61.7950325012207
0, 0, 29, 62.20267105102539
0, 0, 30, 62.57293701171875
0, 0, 31, 62.99094009399414
0, 0, 32, 63.38591384887695
0, 0, 33, 63.7985725402832
0, 0, 34, 64.17108917236328
0, 0, 35, 64.58876037597656
0, 0, 36, 64.96804046630859
0, 0, 37, 65.32964324951172
0, 0, 38, 65.70259094238281
0, 0, 39, 66.12997436523438
0, 0, 40, 66.52066802978516
0, 0, 41, 66.91735076904297
0, 0, 42, 67.31046295166016
0, 0, 43, 67.71326446533203
0, 0, 44, 68.09230804443359
0, 0, 45, 68.47616577148438
0, 0, 46, 68.85292053222656
0, 0, 47, 69.21340942382812
0, 0, 48, 69.61189270019531
0, 0, 49, 70.01442718505859
0, 0, 50, 70.45883178710938
0, 0, 51, 70.80951690673828
0, 0, 52, 71.22336578369141
0, 0, 53, 71.6246337890625
0, 0, 54, 72.00112152099609
0, 0, 55, 72.38483428955078
0, 0, 56, 72.75644683837891
0, 0, 57, 73.179443359375
0, 0, 58, 73.54458618164062
0, 0, 59, 73.91995239257812
0, 0, 60, 74.32733917236328
0, 0, 61, 74.71741485595703
0, 0, 62, 75.12340545654297
0, 0, 63, 75.53184509277344
0, 0, 64, 75.95223236083984
0, 0, 65, 76.30265045166016
0, 0, 66, 76.66413879394531
0, 0, 67, 77.05402374267578
0, 0, 68, 77.49259185791016
0, 0, 69, 77.91111755371094
0, 0, 70, 78.3074951171875
0, 0, 71, 78.70172119140625
0, 0, 72, 79.0850830078125
0, 0, 73, 79.46800994873047
0, 0, 74, 79.83287811279297
0, 0, 75, 80.22750091552734
0, 0, 76, 80.63720703125
0, 0, 77, 81.06977844238281
0, 0, 78, 81.48257446289062
0, 0, 79, 81.92903900146484
0, 0, 80, 82.30855560302734
0, 0, 81, 82.72544860839844
0, 0, 82, 83.13570404052734
0, 0, 83, 83.521484375
0, 0, 84, 83.8958740234375
0, 0, 85, 84.33244323730469
0, 0, 86, 84.72885131835938
0, 0, 87, 85.12738800048828
0, 0, 88, 85.54064178466797
0, 0, 89, 85.92372131347656
0, 0, 90, 86.29213714599609
0, 0, 91, 86.73332214355469
0, 0, 92, 87.12451934814453
0, 0, 93, 87.50010681152344
0, 0, 94, 87.89994812011719
0, 0, 95, 88.29982757568359
0, 0, 96, 88.74146270751953
0, 0, 97, 89.13114166259766
0, 0, 98, 89.56914520263672
0, 0, 99, 89.96229553222656
0, 0, 100, 90.39381408691406
0, 0, 101, 90.76743316650391
0, 0, 102, 91.18038940429688
0, 0, 103, 91.57423400878906
0, 0, 104, 92.01119995117188
0, 0, 105, 92.41505432128906
0, 0, 106, 92.80621337890625
0, 0, 107, 93.24568939208984
0, 0, 108, 93.69083404541016
0, 0, 109, 94.06255340576172
0, 0, 110, 94.48032379150391
0, 0, 111, 94.91799163818359
0, 0, 112, 95.34172821044922
0, 0, 113, 95.71656799316406
0, 0, 114, 96.13336944580078
0, 0, 115, 96.58267211914062
0, 0, 116, 96.98382568359375
0, 0, 117, 97.38762664794922
0, 0, 118, 97.85128784179688
0, 0, 119, 98.23439788818359
0, 0, 120, 98.59092712402344
0, 0, 121, 99.05986022949219
0, 0, 122, 99.50373840332031
0, 0, 123, 99.87356567382812
0, 0, 124, 100.2588424682617
0, 0, 125, 100.655143737793
0, 0, 126, 101.1076431274414
0, 0, 127, 101.4692077636719
0, 0, 128, 101.8683013916016
0, 0, 129, 102.2720718383789
0, 0, 130, 102.7423858642578
0, 0, 131, 103.1634674072266
0, 0, 132, 103.6274948120117
0, 0, 133, 104.0424728393555
0, 0, 134, 104.4680557250977
0, 0, 135, 104.9169006347656
0, 0, 136, 105.3283767700195
0, 0, 137, 105.7061538696289
0, 0, 138, 106.1431274414062
0, 0, 139, 106.5818557739258
0, 0, 140, 107.0510482788086
0, 0, 141, 107.4241790771484
0, 0, 142, 107.8573226928711
0, 0, 143, 108.2668685913086
0, 0, 144, 108.6124420166016
0, 0, 145, 109.0466918945312
0, 0, 146, 109.4575424194336
0, 0, 147, 109.8922729492188
0, 0, 148, 110.2379913330078
0, 0, 149, 110.6860046386719
0, 0, 150, 111.1235275268555
0, 0, 151, 111.5209350585938
0, 0, 152, 111.9834365844727
0, 0, 153, 112.3441467285156
0, 0, 154, 112.8641052246094
0, 0, 155, 113.2621994018555
0, 0, 156, 113.7071762084961
0, 0, 157, 114.1767120361328
0, 0, 158, 114.6020812988281
0, 0, 159, 114.9901351928711
0, 0, 160, 115.4406661987305
0, 0, 161, 115.8475875854492
0, 0, 162, 116.2479553222656
0, 0, 163, 116.6816101074219
0, 0, 164, 117.1011657714844
0, 0, 165, 117.5080184936523
0, 0, 166, 117.8691101074219
0, 0, 167, 118.3661727905273
0, 0, 168, 118.7506408691406
0, 0, 169, 119.1445236206055
0, 0, 170, 119.597297668457
0, 0, 171, 120.0419769287109
0, 0, 172, 120.4898834228516
0, 0, 173, 120.9298934936523
0, 0, 174, 121.3520202636719
0, 0, 175, 121.7890243530273
0, 0, 176, 122.20654296875
0, 0, 177, 122.6216354370117
0, 0, 178, 123.0315704345703
0, 0, 179, 123.4072494506836
0, 0, 180, 123.8060836791992
0, 0, 181, 124.1894149780273
0, 0, 182, 124.6691818237305
0, 0, 183, 124.9707641601562
0, 0, 184, 125.4353179931641
0, 0, 185, 125.8833847045898
0, 0, 186, 126.2893753051758
0, 0, 187, 126.7014083862305
0, 0, 188, 127.1212005615234
0, 0, 189, 127.5359191894531
0, 0, 190, 128.0027770996094
0, 0, 191, 128.3507232666016
0, 0, 192, 128.8010406494141
0, 0, 193, 129.2091827392578
0, 0, 194, 129.6165008544922
0, 0, 195, 129.9345092773438
0, 0, 196, 130.3062286376953
0, 0, 197, 130.7425842285156
0, 0, 198, 131.1845245361328
0, 0, 199, 131.6097412109375
0, 0, 200, 131.93603515625
0, 0, 201, 132.3440551757812
0, 0, 202, 132.7705993652344
0, 0, 203, 133.1604919433594
0, 0, 204, 133.5215148925781
0, 0, 205, 134.0082397460938
0, 0, 206, 134.4183197021484
0, 0, 207, 134.7594146728516
0, 0, 208, 135.1603698730469
0, 0, 209, 135.5829467773438
0, 0, 210, 135.9689025878906
0, 0, 211, 136.3677215576172
0, 0, 212, 136.7473754882812
0, 0, 213, 137.1064910888672
0, 0, 214, 137.4998321533203
0, 0, 215, 137.8330383300781
0, 0, 216, 138.215576171875
0, 0, 217, 138.5888214111328
0, 0, 218, 138.9369964599609
0, 0, 219, 139.328125
0, 0, 220, 139.6348876953125
0, 0, 221, 140.0400085449219
0, 0, 222, 140.4262390136719
0, 0, 223, 140.7682037353516
0, 0, 224, 141.1173858642578
0, 0, 225, 141.4910125732422
0, 0, 226, 141.8278350830078
0, 0, 227, 142.1871795654297
0, 0, 228, 142.5625
0, 0, 229, 142.8838195800781
0, 0, 230, 143.2654876708984
0, 0, 231, 143.6302795410156
0, 0, 232, 143.9496612548828
0, 0, 233, 144.2390289306641
0, 0, 234, 144.6156005859375
0, 0, 235, 144.9805603027344
0, 0, 236, 145.3562622070312
0, 0, 237, 145.6356201171875
0, 0, 238, 145.9505157470703
0, 0, 239, 146.2383575439453
0, 0, 240, 146.6007080078125
0, 0, 241, 146.8747711181641
0, 0, 242, 147.2023468017578
0, 0, 243, 147.5870056152344
0, 0, 244, 147.845458984375
0, 0, 245, 148.1533203125
0, 0, 246, 148.4563903808594
0, 0, 247, 148.7392578125
0, 0, 248, 148.9937591552734
0, 0, 249, 149.2366180419922
0, 0, 250, 149.5045623779297
0, 0, 251, 149.7417907714844
0, 0, 252, 150.0359191894531
0, 0, 253, 150.3397979736328
0, 0, 254, 150.5966339111328
0, 0, 255, 150.8085174560547
0, 0, 256, 151.0651092529297
0, 0, 257, 151.3118438720703
0, 0, 258, 151.5369110107422
0, 0, 259, 151.7837219238281
0, 0, 260, 152.0416564941406
0, 0, 261, 152.2331695556641
0, 0, 262, 152.4551391601562
0, 0, 263, 152.6667938232422
0, 0, 264, 152.8029479980469
0, 0, 265, 153.0879058837891
0, 0, 266, 153.2613220214844
0, 0, 267, 153.4638366699219
0, 0, 268, 153.6083068847656
0, 0, 269, 153.7449188232422
0, 0, 270, 153.8758087158203
0, 0, 271, 154.0034332275391
0, 0, 272, 154.1097106933594
0, 0, 273, 154.2537994384766
0, 0, 274, 154.3883819580078
0, 0, 275, 154.5175018310547
0, 0, 276, 154.5693206787109
0, 0, 277, 154.6413421630859
0, 0, 278, 154.7439727783203
0, 0, 279, 154.8601531982422
0, 0, 280, 154.8897247314453
0, 0, 281, 154.8531036376953
0, 0, 282, 154.9402008056641
0, 0, 283, 154.9381256103516
0, 0, 284, 154.8696746826172
0, 0, 285, 154.8814239501953
0, 0, 286, 154.8099060058594
0, 0, 287, 154.7221221923828
0, 0, 288, 154.5888366699219
0, 0, 289, 154.5511779785156
0, 0, 290, 154.4304046630859
0, 0, 291, 154.2697601318359
0, 0, 292, 154.0791778564453
0, 0, 293, 153.8018493652344
0, 0, 294, 153.5952453613281
0, 0, 295, 153.1958618164062
0, 0, 296, 152.8920745849609
0, 0, 297, 152.4216461181641
0, 0, 298, 151.8518981933594
0, 0, 299, 151.1344146728516
