# TOPAS Version: 3.7
# Parameter File: EnergyFluenceTesting.txt
# Results for scorer EnergyFluence
# Scored in component: Phantom
# X in 50 bins of 0.1 cm
# Y in 50 bins of 0.1 cm
# Z in 50 bins of 0.1 cm
# EnergyFluence ( MeV/mm2 ) : Sum   
0, 0, 0, 21.74800872802734
0, 0, 1, 20.39479064941406
0, 0, 2, 23.70115661621094
0, 0, 3, 24.09612464904785
0, 0, 4, 24.21542739868164
0, 0, 5, 22.32338714599609
0, 0, 6, 21.94614219665527
0, 0, 7, 24.05461883544922
0, 0, 8, 26.29661560058594
0, 0, 9, 23.4036922454834
0, 0, 10, 22.59868240356445
0, 0, 11, 24.33021354675293
0, 0, 12, 23.49767875671387
0, 0, 13, 22.86392211914062
0, 0, 14, 25.16159629821777
0, 0, 15, 25.72725486755371
0, 0, 16, 23.75235557556152
0, 0, 17, 23.70641899108887
0, 0, 18, 21.26627349853516
0, 0, 19, 22.25522422790527
0, 0, 20, 25.71367835998535
0, 0, 21, 25.45009994506836
0, 0, 22, 26.92427444458008
0, 0, 23, 23.48548126220703
0, 0, 24, 23.71794891357422
0, 0, 25, 23.99223518371582
0, 0, 26, 24.67993354797363
0, 0, 27, 21.40275955200195
0, 0, 28, 23.70467185974121
0, 0, 29, 21.07880401611328
0, 0, 30, 24.51845359802246
0, 0, 31, 23.09155654907227
0, 0, 32, 25.74624633789062
0, 0, 33, 21.2489070892334
0, 0, 34, 22.80685043334961
0, 0, 35, 20.30291366577148
0, 0, 36, 21.48203468322754
0, 0, 37, 24.57502746582031
0, 0, 38, 21.24117851257324
0, 0, 39, 20.19074821472168
0, 0, 40, 20.37652206420898
0, 0, 41, 18.10615539550781
0, 0, 42, 19.03725051879883
0, 0, 43, 19.07609748840332
0, 0, 44, 19.20951843261719
0, 0, 45, 17.41587829589844
0, 0, 46, 18.4998607635498
0, 0, 47, 17.18502998352051
0, 0, 48, 14.51884746551514
0, 0, 49, 17.25980186462402
0, 1, 0, 22.13068962097168
0, 1, 1, 22.20134162902832
0, 1, 2, 21.84110260009766
0, 1, 3, 23.20874214172363
0, 1, 4, 24.22177505493164
0, 1, 5, 23.70593070983887
0, 1, 6, 23.45281791687012
0, 1, 7, 24.32952308654785
0, 1, 8, 25.27323532104492
0, 1, 9, 23.40289878845215
0, 1, 10, 26.01632499694824
0, 1, 11, 29.11361885070801
0, 1, 12, 24.79387092590332
0, 1, 13, 27.09559059143066
0, 1, 14, 29.06220245361328
0, 1, 15, 27.94760704040527
0, 1, 16, 24.76437568664551
0, 1, 17, 28.34355926513672
0, 1, 18, 27.96201705932617
0, 1, 19, 25.60954666137695
0, 1, 20, 27.49585342407227
0, 1, 21, 26.24535179138184
0, 1, 22, 25.55374908447266
0, 1, 23, 24.38582611083984
0, 1, 24, 24.54046821594238
0, 1, 25, 23.35852432250977
0, 1, 26, 23.59383201599121
0, 1, 27, 26.30759048461914
0, 1, 28, 25.16288375854492
0, 1, 29, 24.67945671081543
0, 1, 30, 27.17921447753906
0, 1, 31, 25.73834800720215
0, 1, 32, 25.19949531555176
0, 1, 33, 23.66604042053223
0, 1, 34, 24.05897521972656
0, 1, 35, 22.01686859130859
0, 1, 36, 21.46900939941406
0, 1, 37, 21.43313407897949
0, 1, 38, 21.09422874450684
0, 1, 39, 22.83991622924805
0, 1, 40, 19.53495979309082
0, 1, 41, 20.94855117797852
0, 1, 42, 19.2038459777832
0, 1, 43, 20.90266418457031
0, 1, 44, 18.19601821899414
0, 1, 45, 17.03910064697266
0, 1, 46, 17.74319648742676
0, 1, 47, 18.61947631835938
0, 1, 48, 16.38811302185059
0, 1, 49, 16.60307693481445
0, 2, 0, 24.24567794799805
0, 2, 1, 25.93092918395996
0, 2, 2, 26.32644653320312
0, 2, 3, 23.33741760253906
0, 2, 4, 24.95451354980469
0, 2, 5, 27.0927734375
0, 2, 6, 25.37660026550293
0, 2, 7, 27.68222045898438
0, 2, 8, 26.31510353088379
0, 2, 9, 25.6858081817627
0, 2, 10, 27.71426773071289
0, 2, 11, 27.18753623962402
0, 2, 12, 25.9935417175293
0, 2, 13, 25.90847015380859
0, 2, 14, 29.22872543334961
0, 2, 15, 26.67121505737305
0, 2, 16, 28.8508415222168
0, 2, 17, 28.16552925109863
0, 2, 18, 28.9878044128418
0, 2, 19, 28.31261444091797
0, 2, 20, 26.97698211669922
0, 2, 21, 24.03357315063477
0, 2, 22, 27.28790283203125
0, 2, 23, 27.80606651306152
0, 2, 24, 29.15740394592285
0, 2, 25, 26.35854530334473
0, 2, 26, 24.02885437011719
0, 2, 27, 25.07073783874512
0, 2, 28, 25.97739601135254
0, 2, 29, 24.8540210723877
0, 2, 30, 26.74868011474609
0, 2, 31, 24.15446853637695
0, 2, 32, 25.29573631286621
0, 2, 33, 25.23652648925781
0, 2, 34, 25.59341621398926
0, 2, 35, 27.26432800292969
0, 2, 36, 24.78213119506836
0, 2, 37, 23.3400993347168
0, 2, 38, 22.78023529052734
0, 2, 39, 24.62560081481934
0, 2, 40, 21.36045265197754
0, 2, 41, 21.42086410522461
0, 2, 42, 21.27281761169434
0, 2, 43, 20.82249641418457
0, 2, 44, 20.57791519165039
0, 2, 45, 20.23266983032227
0, 2, 46, 18.5988655090332
0, 2, 47, 18.62146949768066
0, 2, 48, 18.07953643798828
0, 2, 49, 16.5118522644043
0, 3, 0, 24.00839805603027
0, 3, 1, 24.47114181518555
0, 3, 2, 25.73329925537109
0, 3, 3, 28.9589786529541
0, 3, 4, 25.85322380065918
0, 3, 5, 26.16658592224121
0, 3, 6, 26.21530151367188
0, 3, 7, 27.30167007446289
0, 3, 8, 27.38166809082031
0, 3, 9, 27.70719718933105
0, 3, 10, 26.6532154083252
0, 3, 11, 27.58960723876953
0, 3, 12, 28.37168502807617
0, 3, 13, 28.42121505737305
0, 3, 14, 27.2397346496582
0, 3, 15, 31.62583923339844
0, 3, 16, 31.73680686950684
0, 3, 17, 29.99357604980469
0, 3, 18, 29.29276657104492
0, 3, 19, 28.2127799987793
0, 3, 20, 29.20943260192871
0, 3, 21, 29.23685264587402
0, 3, 22, 32.15836334228516
0, 3, 23, 29.81512832641602
0, 3, 24, 29.10879135131836
0, 3, 25, 29.76238632202148
0, 3, 26, 32.36549377441406
0, 3, 27, 26.63768768310547
0, 3, 28, 25.37524032592773
0, 3, 29, 28.57090187072754
0, 3, 30, 25.74555587768555
0, 3, 31, 24.8658504486084
0, 3, 32, 26.5639820098877
0, 3, 33, 24.66323089599609
0, 3, 34, 25.26453018188477
0, 3, 35, 26.027587890625
0, 3, 36, 26.22919273376465
0, 3, 37, 24.73645782470703
0, 3, 38, 25.65836715698242
0, 3, 39, 23.27844619750977
0, 3, 40, 24.54513740539551
0, 3, 41, 21.85780334472656
0, 3, 42, 23.0327262878418
0, 3, 43, 26.03109169006348
0, 3, 44, 21.87706184387207
0, 3, 45, 20.86709785461426
0, 3, 46, 20.3221549987793
0, 3, 47, 21.19295310974121
0, 3, 48, 21.74691581726074
0, 3, 49, 17.27728080749512
0, 4, 0, 25.80879020690918
0, 4, 1, 23.18797492980957
0, 4, 2, 25.8883228302002
0, 4, 3, 28.93723487854004
0, 4, 4, 27.82736206054688
0, 4, 5, 25.55466461181641
0, 4, 6, 25.66819000244141
0, 4, 7, 26.58536529541016
0, 4, 8, 27.57678985595703
0, 4, 9, 28.1146411895752
0, 4, 10, 28.15168380737305
0, 4, 11, 30.57095909118652
0, 4, 12, 32.20271682739258
0, 4, 13, 30.85401153564453
0, 4, 14, 31.51483917236328
0, 4, 15, 28.89461708068848
0, 4, 16, 29.91222763061523
0, 4, 17, 29.25727081298828
0, 4, 18, 31.05193328857422
0, 4, 19, 31.36813926696777
0, 4, 20, 30.8652229309082
0, 4, 21, 35.06805801391602
0, 4, 22, 31.1151065826416
0, 4, 23, 30.77537155151367
0, 4, 24, 29.26994705200195
0, 4, 25, 31.40897369384766
0, 4, 26, 31.90873527526855
0, 4, 27, 32.17418670654297
0, 4, 28, 28.56752586364746
0, 4, 29, 31.0112133026123
0, 4, 30, 27.81347846984863
0, 4, 31, 26.70082664489746
0, 4, 32, 27.24219703674316
0, 4, 33, 28.6305046081543
0, 4, 34, 28.80667304992676
0, 4, 35, 25.07182693481445
0, 4, 36, 26.18687629699707
0, 4, 37, 27.51859474182129
0, 4, 38, 25.71819686889648
0, 4, 39, 24.11344718933105
0, 4, 40, 22.42523193359375
0, 4, 41, 23.3499641418457
0, 4, 42, 25.13350868225098
0, 4, 43, 22.46584892272949
0, 4, 44, 23.75026321411133
0, 4, 45, 20.04492568969727
0, 4, 46, 23.15546035766602
0, 4, 47, 20.27605056762695
0, 4, 48, 19.75326728820801
0, 4, 49, 17.42183876037598
0, 5, 0, 26.87404823303223
0, 5, 1, 25.84169769287109
0, 5, 2, 24.42376899719238
0, 5, 3, 26.12475776672363
0, 5, 4, 27.28227615356445
0, 5, 5, 28.57814979553223
0, 5, 6, 29.80349922180176
0, 5, 7, 28.7831859588623
0, 5, 8, 29.13582992553711
0, 5, 9, 28.8428897857666
0, 5, 10, 30.9521656036377
0, 5, 11, 33.86579895019531
0, 5, 12, 32.92829895019531
0, 5, 13, 31.3256950378418
0, 5, 14, 32.27921295166016
0, 5, 15, 32.78432083129883
0, 5, 16, 33.66510391235352
0, 5, 17, 35.15362548828125
0, 5, 18, 35.18014907836914
0, 5, 19, 33.34172439575195
0, 5, 20, 33.17390441894531
0, 5, 21, 32.42327499389648
0, 5, 22, 30.01076316833496
0, 5, 23, 31.83346939086914
0, 5, 24, 28.9913330078125
0, 5, 25, 30.95069313049316
0, 5, 26, 30.24557685852051
0, 5, 27, 31.59304046630859
0, 5, 28, 27.16769981384277
0, 5, 29, 30.41326713562012
0, 5, 30, 29.97345542907715
0, 5, 31, 29.83396148681641
0, 5, 32, 27.4714298248291
0, 5, 33, 31.02985572814941
0, 5, 34, 29.36258506774902
0, 5, 35, 27.24639701843262
0, 5, 36, 27.26943397521973
0, 5, 37, 30.61764526367188
0, 5, 38, 27.17048072814941
0, 5, 39, 24.62814331054688
0, 5, 40, 25.78507614135742
0, 5, 41, 25.62901306152344
0, 5, 42, 24.81011199951172
0, 5, 43, 24.8691520690918
0, 5, 44, 22.52675819396973
0, 5, 45, 23.09858131408691
0, 5, 46, 20.6138858795166
0, 5, 47, 19.41899871826172
0, 5, 48, 21.52243804931641
0, 5, 49, 16.07574844360352
0, 6, 0, 27.38731002807617
0, 6, 1, 25.95549583435059
0, 6, 2, 27.34582710266113
0, 6, 3, 27.23252296447754
0, 6, 4, 29.10778999328613
0, 6, 5, 29.70002365112305
0, 6, 6, 29.61038208007812
0, 6, 7, 30.21296501159668
0, 6, 8, 32.93205261230469
0, 6, 9, 34.44792556762695
0, 6, 10, 32.64736175537109
0, 6, 11, 37.51251220703125
0, 6, 12, 32.9900016784668
0, 6, 13, 32.49665832519531
0, 6, 14, 33.73954010009766
0, 6, 15, 28.15627670288086
0, 6, 16, 35.01157379150391
0, 6, 17, 32.46089935302734
0, 6, 18, 36.16766357421875
0, 6, 19, 35.54964828491211
0, 6, 20, 34.6164436340332
0, 6, 21, 36.19922256469727
0, 6, 22, 30.51041984558105
0, 6, 23, 34.51980590820312
0, 6, 24, 29.69062232971191
0, 6, 25, 31.03053283691406
0, 6, 26, 31.13489532470703
0, 6, 27, 32.32907485961914
0, 6, 28, 29.57213973999023
0, 6, 29, 34.24575424194336
0, 6, 30, 30.0136661529541
0, 6, 31, 33.59742736816406
0, 6, 32, 29.08498191833496
0, 6, 33, 29.68279266357422
0, 6, 34, 30.47639656066895
0, 6, 35, 31.01042366027832
0, 6, 36, 29.4283275604248
0, 6, 37, 28.53454780578613
0, 6, 38, 25.69680213928223
0, 6, 39, 25.47063636779785
0, 6, 40, 26.11272239685059
0, 6, 41, 26.36764907836914
0, 6, 42, 25.25917053222656
0, 6, 43, 22.50428581237793
0, 6, 44, 23.23814582824707
0, 6, 45, 23.03817558288574
0, 6, 46, 21.69119644165039
0, 6, 47, 24.04747009277344
0, 6, 48, 21.71220207214355
0, 6, 49, 19.56282997131348
0, 7, 0, 27.43084335327148
0, 7, 1, 26.56002616882324
0, 7, 2, 31.87334251403809
0, 7, 3, 30.4897403717041
0, 7, 4, 30.42848014831543
0, 7, 5, 32.36363983154297
0, 7, 6, 29.4666862487793
0, 7, 7, 32.07729339599609
0, 7, 8, 34.35005569458008
0, 7, 9, 32.59267807006836
0, 7, 10, 34.13499450683594
0, 7, 11, 34.34975814819336
0, 7, 12, 34.09864044189453
0, 7, 13, 32.81055450439453
0, 7, 14, 35.78190612792969
0, 7, 15, 36.37419128417969
0, 7, 16, 36.37789916992188
0, 7, 17, 33.20394515991211
0, 7, 18, 36.38248825073242
0, 7, 19, 34.76217651367188
0, 7, 20, 33.99758911132812
0, 7, 21, 36.44004058837891
0, 7, 22, 34.90216827392578
0, 7, 23, 33.06965637207031
0, 7, 24, 32.70040893554688
0, 7, 25, 36.39373779296875
0, 7, 26, 31.69490432739258
0, 7, 27, 34.3062629699707
0, 7, 28, 35.13369369506836
0, 7, 29, 36.60606384277344
0, 7, 30, 32.0654411315918
0, 7, 31, 30.27979278564453
0, 7, 32, 31.71828842163086
0, 7, 33, 31.07392311096191
0, 7, 34, 31.70634460449219
0, 7, 35, 28.87763977050781
0, 7, 36, 27.39817810058594
0, 7, 37, 30.13815307617188
0, 7, 38, 28.22625732421875
0, 7, 39, 28.95726203918457
0, 7, 40, 26.47702598571777
0, 7, 41, 28.8211727142334
0, 7, 42, 26.40542030334473
0, 7, 43, 25.68008804321289
0, 7, 44, 23.85710525512695
0, 7, 45, 23.31353759765625
0, 7, 46, 22.97839546203613
0, 7, 47, 26.30504417419434
0, 7, 48, 21.57579803466797
0, 7, 49, 23.11829566955566
0, 8, 0, 29.46615409851074
0, 8, 1, 29.64377975463867
0, 8, 2, 33.82889556884766
0, 8, 3, 32.52051162719727
0, 8, 4, 29.61266708374023
0, 8, 5, 32.78292846679688
0, 8, 6, 30.15250587463379
0, 8, 7, 30.14233589172363
0, 8, 8, 33.88753128051758
0, 8, 9, 37.16385650634766
0, 8, 10, 32.91587829589844
0, 8, 11, 33.79541778564453
0, 8, 12, 35.47114181518555
0, 8, 13, 36.91128540039062
0, 8, 14, 37.10023498535156
0, 8, 15, 37.94646835327148
0, 8, 16, 36.84650421142578
0, 8, 17, 36.64412307739258
0, 8, 18, 36.69900131225586
0, 8, 19, 39.65285110473633
0, 8, 20, 38.88733291625977
0, 8, 21, 34.83796310424805
0, 8, 22, 36.13666915893555
0, 8, 23, 35.18066787719727
0, 8, 24, 33.98674774169922
0, 8, 25, 35.17739868164062
0, 8, 26, 36.83438873291016
0, 8, 27, 37.2937126159668
0, 8, 28, 36.10361480712891
0, 8, 29, 36.46323394775391
0, 8, 30, 34.2629508972168
0, 8, 31, 31.09214401245117
0, 8, 32, 33.71908569335938
0, 8, 33, 31.82577133178711
0, 8, 34, 31.05686378479004
0, 8, 35, 33.00259780883789
0, 8, 36, 29.53717613220215
0, 8, 37, 30.90151214599609
0, 8, 38, 29.56341171264648
0, 8, 39, 28.97344017028809
0, 8, 40, 28.56269073486328
0, 8, 41, 30.02427864074707
0, 8, 42, 26.95527267456055
0, 8, 43, 28.26189994812012
0, 8, 44, 26.25996017456055
0, 8, 45, 27.64950942993164
0, 8, 46, 24.06488990783691
0, 8, 47, 23.52415657043457
0, 8, 48, 21.8183650970459
0, 8, 49, 24.04549407958984
0, 9, 0, 31.30679321289062
0, 9, 1, 33.39203643798828
0, 9, 2, 35.25029754638672
0, 9, 3, 32.76986312866211
0, 9, 4, 34.826171875
0, 9, 5, 32.91942596435547
0, 9, 6, 36.79357528686523
0, 9, 7, 34.15214157104492
0, 9, 8, 35.15183258056641
0, 9, 9, 38.36247634887695
0, 9, 10, 35.49212646484375
0, 9, 11, 34.64878463745117
0, 9, 12, 35.51491928100586
0, 9, 13, 36.03802108764648
0, 9, 14, 36.3598747253418
0, 9, 15, 35.97491073608398
0, 9, 16, 35.47322082519531
0, 9, 17, 38.48328399658203
0, 9, 18, 35.70711517333984
0, 9, 19, 37.3998908996582
0, 9, 20, 40.56020355224609
0, 9, 21, 36.69468307495117
0, 9, 22, 39.34104537963867
0, 9, 23, 39.45199203491211
0, 9, 24, 39.76757049560547
0, 9, 25, 33.20090866088867
0, 9, 26, 34.25873947143555
0, 9, 27, 37.06047058105469
0, 9, 28, 35.10729598999023
0, 9, 29, 35.41547393798828
0, 9, 30, 35.30463027954102
0, 9, 31, 34.24532318115234
0, 9, 32, 37.48076248168945
0, 9, 33, 33.51245880126953
0, 9, 34, 33.31465530395508
0, 9, 35, 31.94490242004395
0, 9, 36, 32.00344085693359
0, 9, 37, 33.47738265991211
0, 9, 38, 32.96133422851562
0, 9, 39, 32.14712905883789
0, 9, 40, 25.93117713928223
0, 9, 41, 29.62737846374512
0, 9, 42, 26.49301528930664
0, 9, 43, 30.20666313171387
0, 9, 44, 29.17114639282227
0, 9, 45, 26.15618896484375
0, 9, 46, 26.59834671020508
0, 9, 47, 24.77726936340332
0, 9, 48, 22.03980445861816
0, 9, 49, 22.26900291442871
0, 10, 0, 30.18641662597656
0, 10, 1, 33.20555877685547
0, 10, 2, 33.39287948608398
0, 10, 3, 32.35867691040039
0, 10, 4, 35.53606033325195
0, 10, 5, 34.63906478881836
0, 10, 6, 36.02817153930664
0, 10, 7, 35.2030029296875
0, 10, 8, 36.48320007324219
0, 10, 9, 36.91830825805664
0, 10, 10, 43.21435928344727
0, 10, 11, 37.73434066772461
0, 10, 12, 37.91230010986328
0, 10, 13, 41.74438858032227
0, 10, 14, 38.10219955444336
0, 10, 15, 39.45996475219727
0, 10, 16, 39.73688888549805
0, 10, 17, 41.60418701171875
0, 10, 18, 39.14731979370117
0, 10, 19, 41.46100997924805
0, 10, 20, 37.58464431762695
0, 10, 21, 39.29016876220703
0, 10, 22, 39.32442474365234
0, 10, 23, 39.91321182250977
0, 10, 24, 39.14663696289062
0, 10, 25, 38.3698844909668
0, 10, 26, 39.02447509765625
0, 10, 27, 39.31292724609375
0, 10, 28, 36.00121688842773
0, 10, 29, 37.45816802978516
0, 10, 30, 37.10859298706055
0, 10, 31, 37.76204299926758
0, 10, 32, 37.07796478271484
0, 10, 33, 39.95027160644531
0, 10, 34, 36.38640975952148
0, 10, 35, 32.93056106567383
0, 10, 36, 32.64765167236328
0, 10, 37, 32.83145141601562
0, 10, 38, 31.47773933410645
0, 10, 39, 31.39221382141113
0, 10, 40, 31.34028816223145
0, 10, 41, 31.92170143127441
0, 10, 42, 30.6107234954834
0, 10, 43, 26.01015090942383
0, 10, 44, 27.57032775878906
0, 10, 45, 24.94033432006836
0, 10, 46, 23.87351226806641
0, 10, 47, 26.20034980773926
0, 10, 48, 27.14900970458984
0, 10, 49, 22.53475570678711
0, 11, 0, 29.68207168579102
0, 11, 1, 32.44992065429688
0, 11, 2, 34.90203094482422
0, 11, 3, 32.20528793334961
0, 11, 4, 33.95763778686523
0, 11, 5, 35.01118087768555
0, 11, 6, 36.14521789550781
0, 11, 7, 38.6922607421875
0, 11, 8, 39.60988998413086
0, 11, 9, 38.29743194580078
0, 11, 10, 42.34551620483398
0, 11, 11, 37.47181701660156
0, 11, 12, 41.07488632202148
0, 11, 13, 40.5720329284668
0, 11, 14, 40.60330581665039
0, 11, 15, 42.01708602905273
0, 11, 16, 40.90972137451172
0, 11, 17, 40.09018707275391
0, 11, 18, 40.64154434204102
0, 11, 19, 42.89209747314453
0, 11, 20, 43.84840393066406
0, 11, 21, 40.10319900512695
0, 11, 22, 41.37249755859375
0, 11, 23, 39.49489974975586
0, 11, 24, 39.02064514160156
0, 11, 25, 38.09282302856445
0, 11, 26, 39.31279754638672
0, 11, 27, 40.31094741821289
0, 11, 28, 37.06679534912109
0, 11, 29, 40.23646926879883
0, 11, 30, 39.21748352050781
0, 11, 31, 38.35278701782227
0, 11, 32, 36.89258193969727
0, 11, 33, 37.93051910400391
0, 11, 34, 36.4134635925293
0, 11, 35, 36.78977966308594
0, 11, 36, 36.95993804931641
0, 11, 37, 36.95214462280273
0, 11, 38, 34.81985473632812
0, 11, 39, 34.24696731567383
0, 11, 40, 34.27417373657227
0, 11, 41, 30.24813079833984
0, 11, 42, 29.17883682250977
0, 11, 43, 31.74953842163086
0, 11, 44, 29.66021537780762
0, 11, 45, 28.52164649963379
0, 11, 46, 27.3778076171875
0, 11, 47, 27.6060905456543
0, 11, 48, 24.43130874633789
0, 11, 49, 27.00053787231445
0, 12, 0, 33.12044143676758
0, 12, 1, 32.6135139465332
0, 12, 2, 36.79935455322266
0, 12, 3, 36.69086837768555
0, 12, 4, 39.18690490722656
0, 12, 5, 39.43719482421875
0, 12, 6, 34.3436393737793
0, 12, 7, 36.19153594970703
0, 12, 8, 37.60139465332031
0, 12, 9, 36.48546981811523
0, 12, 10, 39.40903091430664
0, 12, 11, 41.18578720092773
0, 12, 12, 41.52574920654297
0, 12, 13, 40.30565643310547
0, 12, 14, 39.41761016845703
0, 12, 15, 41.67141723632812
0, 12, 16, 40.14424514770508
0, 12, 17, 41.03472518920898
0, 12, 18, 40.31361770629883
0, 12, 19, 41.12358093261719
0, 12, 20, 41.59846878051758
0, 12, 21, 40.1525764465332
0, 12, 22, 41.39543533325195
0, 12, 23, 43.80951309204102
0, 12, 24, 42.20811462402344
0, 12, 25, 42.22800064086914
0, 12, 26, 42.45692443847656
0, 12, 27, 44.59889221191406
0, 12, 28, 38.59967041015625
0, 12, 29, 39.16514587402344
0, 12, 30, 41.98133087158203
0, 12, 31, 40.27961349487305
0, 12, 32, 38.01777267456055
0, 12, 33, 35.19401931762695
0, 12, 34, 39.46548843383789
0, 12, 35, 37.32154083251953
0, 12, 36, 34.37941741943359
0, 12, 37, 34.916748046875
0, 12, 38, 37.53720092773438
0, 12, 39, 33.16383361816406
0, 12, 40, 36.99181365966797
0, 12, 41, 31.15863418579102
0, 12, 42, 31.56725692749023
0, 12, 43, 31.47569274902344
0, 12, 44, 30.73769760131836
0, 12, 45, 28.2458610534668
0, 12, 46, 28.08119964599609
0, 12, 47, 27.46918106079102
0, 12, 48, 25.04989814758301
0, 12, 49, 24.54482460021973
0, 13, 0, 35.59186172485352
0, 13, 1, 34.81172943115234
0, 13, 2, 37.36010360717773
0, 13, 3, 39.7025260925293
0, 13, 4, 39.97932052612305
0, 13, 5, 38.74594116210938
0, 13, 6, 40.65685272216797
0, 13, 7, 38.15348052978516
0, 13, 8, 40.88837051391602
0, 13, 9, 41.96511840820312
0, 13, 10, 41.79092788696289
0, 13, 11, 39.1872444152832
0, 13, 12, 41.07671356201172
0, 13, 13, 45.12746810913086
0, 13, 14, 41.39310836791992
0, 13, 15, 42.89233779907227
0, 13, 16, 39.93353271484375
0, 13, 17, 44.3983268737793
0, 13, 18, 45.76435852050781
0, 13, 19, 43.90293884277344
0, 13, 20, 46.66744995117188
0, 13, 21, 43.6015625
0, 13, 22, 44.22316741943359
0, 13, 23, 45.86643218994141
0, 13, 24, 43.56296920776367
0, 13, 25, 44.97914505004883
0, 13, 26, 41.5698127746582
0, 13, 27, 40.47895812988281
0, 13, 28, 45.3826789855957
0, 13, 29, 41.63375854492188
0, 13, 30, 42.09590148925781
0, 13, 31, 43.60205078125
0, 13, 32, 40.12881469726562
0, 13, 33, 40.31348037719727
0, 13, 34, 41.86824417114258
0, 13, 35, 39.54262924194336
0, 13, 36, 37.15776824951172
0, 13, 37, 36.91595077514648
0, 13, 38, 36.82897567749023
0, 13, 39, 33.05561447143555
0, 13, 40, 31.22665786743164
0, 13, 41, 34.42820739746094
0, 13, 42, 34.57707595825195
0, 13, 43, 32.09587097167969
0, 13, 44, 33.71153259277344
0, 13, 45, 33.97570037841797
0, 13, 46, 30.94232177734375
0, 13, 47, 27.38590240478516
0, 13, 48, 26.80278587341309
0, 13, 49, 24.01302337646484
0, 14, 0, 37.37964248657227
0, 14, 1, 35.88627243041992
0, 14, 2, 40.89011764526367
0, 14, 3, 41.74027633666992
0, 14, 4, 38.57912063598633
0, 14, 5, 37.67158508300781
0, 14, 6, 41.11640930175781
0, 14, 7, 41.48145294189453
0, 14, 8, 43.19567489624023
0, 14, 9, 45.17481231689453
0, 14, 10, 38.75711059570312
0, 14, 11, 38.54432678222656
0, 14, 12, 42.59437942504883
0, 14, 13, 48.39958953857422
0, 14, 14, 45.10619735717773
0, 14, 15, 46.53105926513672
0, 14, 16, 43.07940292358398
0, 14, 17, 44.36127853393555
0, 14, 18, 44.3438835144043
0, 14, 19, 44.53477478027344
0, 14, 20, 44.02067947387695
0, 14, 21, 46.51793670654297
0, 14, 22, 47.00553894042969
0, 14, 23, 43.76884841918945
0, 14, 24, 41.81901550292969
0, 14, 25, 45.14589691162109
0, 14, 26, 47.488525390625
0, 14, 27, 45.00962829589844
0, 14, 28, 43.24087524414062
0, 14, 29, 41.42361068725586
0, 14, 30, 41.39982223510742
0, 14, 31, 42.70038986206055
0, 14, 32, 43.96923828125
0, 14, 33, 42.14899444580078
0, 14, 34, 39.65977478027344
0, 14, 35, 41.15024948120117
0, 14, 36, 36.32749557495117
0, 14, 37, 35.51637649536133
0, 14, 38, 37.3505744934082
0, 14, 39, 36.60301971435547
0, 14, 40, 35.36262512207031
0, 14, 41, 37.45956802368164
0, 14, 42, 35.82114028930664
0, 14, 43, 33.67133712768555
0, 14, 44, 34.65656661987305
0, 14, 45, 33.65321731567383
0, 14, 46, 30.17160797119141
0, 14, 47, 30.04978942871094
0, 14, 48, 28.03413009643555
0, 14, 49, 24.79374885559082
0, 15, 0, 37.73101043701172
0, 15, 1, 38.46937942504883
0, 15, 2, 36.57225036621094
0, 15, 3, 40.00542068481445
0, 15, 4, 41.20497894287109
0, 15, 5, 42.88929748535156
0, 15, 6, 39.17578506469727
0, 15, 7, 40.08343124389648
0, 15, 8, 41.88943862915039
0, 15, 9, 42.21218872070312
0, 15, 10, 48.62378311157227
0, 15, 11, 45.3454475402832
0, 15, 12, 41.7236213684082
0, 15, 13, 47.01420211791992
0, 15, 14, 47.48445129394531
0, 15, 15, 46.92845153808594
0, 15, 16, 43.12223052978516
0, 15, 17, 46.62644958496094
0, 15, 18, 45.10635757446289
0, 15, 19, 45.77473831176758
0, 15, 20, 46.66616439819336
0, 15, 21, 45.5762939453125
0, 15, 22, 42.9378547668457
0, 15, 23, 45.34027862548828
0, 15, 24, 44.3874397277832
0, 15, 25, 47.57156372070312
0, 15, 26, 43.49420166015625
0, 15, 27, 47.04316711425781
0, 15, 28, 42.48120880126953
0, 15, 29, 45.39918518066406
0, 15, 30, 42.5852165222168
0, 15, 31, 46.16389846801758
0, 15, 32, 42.01708602905273
0, 15, 33, 39.53167724609375
0, 15, 34, 40.44213104248047
0, 15, 35, 43.03799438476562
0, 15, 36, 39.91658401489258
0, 15, 37, 37.54290008544922
0, 15, 38, 38.70926666259766
0, 15, 39, 36.60578918457031
0, 15, 40, 38.96019744873047
0, 15, 41, 35.37390899658203
0, 15, 42, 35.71676635742188
0, 15, 43, 34.59223175048828
0, 15, 44, 31.04872894287109
0, 15, 45, 32.68919372558594
0, 15, 46, 30.22732353210449
0, 15, 47, 27.9613037109375
0, 15, 48, 29.95897102355957
0, 15, 49, 26.76108932495117
0, 16, 0, 38.08218765258789
0, 16, 1, 39.82146835327148
0, 16, 2, 41.82119750976562
0, 16, 3, 40.95993804931641
0, 16, 4, 40.81238174438477
0, 16, 5, 41.04960632324219
0, 16, 6, 43.42794418334961
0, 16, 7, 43.774169921875
0, 16, 8, 41.20500183105469
0, 16, 9, 43.7432975769043
0, 16, 10, 44.43057250976562
0, 16, 11, 47.5142707824707
0, 16, 12, 46.7486686706543
0, 16, 13, 48.79415893554688
0, 16, 14, 47.62018203735352
0, 16, 15, 50.84840774536133
0, 16, 16, 45.64805221557617
0, 16, 17, 45.43706130981445
0, 16, 18, 49.39069366455078
0, 16, 19, 48.47357940673828
0, 16, 20, 44.96389389038086
0, 16, 21, 50.59292221069336
0, 16, 22, 46.97137832641602
0, 16, 23, 48.40686798095703
0, 16, 24, 46.41454696655273
0, 16, 25, 49.06876754760742
0, 16, 26, 51.74212265014648
0, 16, 27, 51.10138702392578
0, 16, 28, 49.15518951416016
0, 16, 29, 48.017822265625
0, 16, 30, 45.38772201538086
0, 16, 31, 46.83121109008789
0, 16, 32, 45.81322479248047
0, 16, 33, 42.18772125244141
0, 16, 34, 42.70318603515625
0, 16, 35, 38.17173385620117
0, 16, 36, 40.08227157592773
0, 16, 37, 42.74026107788086
0, 16, 38, 39.328369140625
0, 16, 39, 39.3393669128418
0, 16, 40, 35.26737594604492
0, 16, 41, 33.43329238891602
0, 16, 42, 37.66363143920898
0, 16, 43, 34.77730178833008
0, 16, 44, 34.14178466796875
0, 16, 45, 31.21248817443848
0, 16, 46, 30.75794982910156
0, 16, 47, 27.19568061828613
0, 16, 48, 28.69782638549805
0, 16, 49, 27.99549865722656
0, 17, 0, 39.90581130981445
0, 17, 1, 41.97109985351562
0, 17, 2, 41.35882949829102
0, 17, 3, 42.94005584716797
0, 17, 4, 43.56684494018555
0, 17, 5, 45.40026092529297
0, 17, 6, 44.44507598876953
0, 17, 7, 44.58734130859375
0, 17, 8, 44.99092102050781
0, 17, 9, 48.38245010375977
0, 17, 10, 46.02123260498047
0, 17, 11, 44.9873046875
0, 17, 12, 48.12128448486328
0, 17, 13, 47.63143920898438
0, 17, 14, 47.16491317749023
0, 17, 15, 49.9876708984375
0, 17, 16, 48.94301223754883
0, 17, 17, 45.15463638305664
0, 17, 18, 48.46795654296875
0, 17, 19, 47.39473724365234
0, 17, 20, 49.0682373046875
0, 17, 21, 47.33315277099609
0, 17, 22, 53.935546875
0, 17, 23, 50.22072219848633
0, 17, 24, 53.8886604309082
0, 17, 25, 49.01389312744141
0, 17, 26, 47.10015869140625
0, 17, 27, 46.7631950378418
0, 17, 28, 49.13177108764648
0, 17, 29, 51.29243850708008
0, 17, 30, 47.18148422241211
0, 17, 31, 42.35453796386719
0, 17, 32, 46.22668838500977
0, 17, 33, 44.31380081176758
0, 17, 34, 37.77774810791016
0, 17, 35, 42.73143005371094
0, 17, 36, 41.97416305541992
0, 17, 37, 42.52490234375
0, 17, 38, 39.43771362304688
0, 17, 39, 39.38115692138672
0, 17, 40, 40.06682205200195
0, 17, 41, 40.31479644775391
0, 17, 42, 38.75114440917969
0, 17, 43, 33.87971496582031
0, 17, 44, 35.61301422119141
0, 17, 45, 31.4111328125
0, 17, 46, 33.30583190917969
0, 17, 47, 33.31669616699219
0, 17, 48, 30.47529602050781
0, 17, 49, 27.74030685424805
0, 18, 0, 40.42460250854492
0, 18, 1, 43.27715682983398
0, 18, 2, 42.66043090820312
0, 18, 3, 43.4301643371582
0, 18, 4, 44.15070724487305
0, 18, 5, 42.62251281738281
0, 18, 6, 45.55339431762695
0, 18, 7, 48.49339294433594
0, 18, 8, 49.08268737792969
0, 18, 9, 44.82561492919922
0, 18, 10, 49.49101257324219
0, 18, 11, 50.08401489257812
0, 18, 12, 50.50989532470703
0, 18, 13, 47.32538604736328
0, 18, 14, 47.25550842285156
0, 18, 15, 48.47001266479492
0, 18, 16, 50.81486129760742
0, 18, 17, 50.21850204467773
0, 18, 18, 49.51882934570312
0, 18, 19, 55.01777267456055
0, 18, 20, 56.12427139282227
0, 18, 21, 52.29351806640625
0, 18, 22, 53.42089080810547
0, 18, 23, 50.3955078125
0, 18, 24, 50.6508674621582
0, 18, 25, 51.36904525756836
0, 18, 26, 49.56784820556641
0, 18, 27, 50.9023551940918
0, 18, 28, 47.97312927246094
0, 18, 29, 47.22924041748047
0, 18, 30, 46.23764038085938
0, 18, 31, 45.38791275024414
0, 18, 32, 42.59247970581055
0, 18, 33, 44.09635162353516
0, 18, 34, 46.5162353515625
0, 18, 35, 44.82381820678711
0, 18, 36, 43.18110275268555
0, 18, 37, 41.77329635620117
0, 18, 38, 37.68166732788086
0, 18, 39, 41.61902618408203
0, 18, 40, 38.8608283996582
0, 18, 41, 39.69792175292969
0, 18, 42, 34.58628845214844
0, 18, 43, 33.66710662841797
0, 18, 44, 33.34502029418945
0, 18, 45, 30.16537666320801
0, 18, 46, 32.75777435302734
0, 18, 47, 30.55598831176758
0, 18, 48, 30.79084396362305
0, 18, 49, 28.16855621337891
0, 19, 0, 36.76480484008789
0, 19, 1, 38.69253540039062
0, 19, 2, 43.74013137817383
0, 19, 3, 43.67562103271484
0, 19, 4, 43.4759635925293
0, 19, 5, 39.54902648925781
0, 19, 6, 44.42728042602539
0, 19, 7, 48.04626846313477
0, 19, 8, 49.56690979003906
0, 19, 9, 46.97238159179688
0, 19, 10, 47.34907913208008
0, 19, 11, 46.69269943237305
0, 19, 12, 46.9824104309082
0, 19, 13, 48.93814086914062
0, 19, 14, 49.71902847290039
0, 19, 15, 49.90373229980469
0, 19, 16, 50.75060653686523
0, 19, 17, 52.61900329589844
0, 19, 18, 50.86836624145508
0, 19, 19, 51.49190521240234
0, 19, 20, 51.10037994384766
0, 19, 21, 50.92684936523438
0, 19, 22, 54.6027717590332
0, 19, 23, 50.95489120483398
0, 19, 24, 52.45734786987305
0, 19, 25, 52.80088806152344
0, 19, 26, 52.26345825195312
0, 19, 27, 50.54736328125
0, 19, 28, 48.01969909667969
0, 19, 29, 47.62935256958008
0, 19, 30, 49.32107543945312
0, 19, 31, 48.67331695556641
0, 19, 32, 46.35441207885742
0, 19, 33, 45.46432876586914
0, 19, 34, 46.54471969604492
0, 19, 35, 44.12236785888672
0, 19, 36, 44.65309143066406
0, 19, 37, 41.8372917175293
0, 19, 38, 42.01791381835938
0, 19, 39, 40.27435684204102
0, 19, 40, 38.98486328125
0, 19, 41, 40.31643295288086
0, 19, 42, 37.0343017578125
0, 19, 43, 36.88765335083008
0, 19, 44, 35.78276062011719
0, 19, 45, 33.95712280273438
0, 19, 46, 35.08938598632812
0, 19, 47, 33.46760940551758
0, 19, 48, 30.77994918823242
0, 19, 49, 28.76226615905762
0, 20, 0, 37.17387008666992
0, 20, 1, 41.73773193359375
0, 20, 2, 45.28592681884766
0, 20, 3, 43.65122985839844
0, 20, 4, 42.61503219604492
0, 20, 5, 46.32181930541992
0, 20, 6, 48.99274444580078
0, 20, 7, 47.71335983276367
0, 20, 8, 45.83745956420898
0, 20, 9, 48.67897796630859
0, 20, 10, 50.18989562988281
0, 20, 11, 49.50059127807617
0, 20, 12, 47.40825271606445
0, 20, 13, 49.75237274169922
0, 20, 14, 53.9442138671875
0, 20, 15, 54.03752517700195
0, 20, 16, 56.32822418212891
0, 20, 17, 50.59247589111328
0, 20, 18, 53.86720275878906
0, 20, 19, 51.46630477905273
0, 20, 20, 47.28955459594727
0, 20, 21, 51.8010139465332
0, 20, 22, 54.81826782226562
0, 20, 23, 52.88923263549805
0, 20, 24, 52.73378753662109
0, 20, 25, 55.42830276489258
0, 20, 26, 49.35260772705078
0, 20, 27, 51.35276794433594
0, 20, 28, 49.50645065307617
0, 20, 29, 47.34177017211914
0, 20, 30, 46.31988906860352
0, 20, 31, 51.5658073425293
0, 20, 32, 46.941650390625
0, 20, 33, 44.892333984375
0, 20, 34, 46.3900260925293
0, 20, 35, 51.66032028198242
0, 20, 36, 44.51729583740234
0, 20, 37, 42.11538314819336
0, 20, 38, 41.69728469848633
0, 20, 39, 43.44966888427734
0, 20, 40, 40.54922866821289
0, 20, 41, 40.25866317749023
0, 20, 42, 38.95380020141602
0, 20, 43, 38.24880981445312
0, 20, 44, 37.05304336547852
0, 20, 45, 34.70438385009766
0, 20, 46, 32.75475311279297
0, 20, 47, 30.05471420288086
0, 20, 48, 30.60511016845703
0, 20, 49, 32.19390106201172
0, 21, 0, 35.11544036865234
0, 21, 1, 39.63846969604492
0, 21, 2, 40.60674667358398
0, 21, 3, 43.36176300048828
0, 21, 4, 46.84080123901367
0, 21, 5, 46.30109786987305
