# TOPAS Version: 3.7
# Parameter File: ReverseEngineerKernel.txt
# Results for scorer ReverseEngineerKernel
# Scored in component: Phantom
# X in 9 bins of 0.1 cm
# Y in 9 bins of 0.1 cm
# Z in 9 bins of 0.1 cm
# EnergyDeposit ( MeV ) : Sum   
0, 0, 0, 0.02258521877229214
0, 0, 1, 0.03019869700074196
0, 0, 2, 0.01881810836493969
0, 0, 3, 0.01331525295972824
0, 0, 4, 0.01582734286785126
0, 0, 5, 0.01245461869984865
0, 0, 6, 0.01056198962032795
0, 0, 7, 0.002579366322606802
0, 0, 8, 0.01758537255227566
0, 1, 0, 0
0, 1, 1, 0
0, 1, 2, 0.02285293862223625
0, 1, 3, 0.02828332595527172
0, 1, 4, 0.03680890053510666
0, 1, 5, 0.03546849638223648
0, 1, 6, 0.009652340784668922
0, 1, 7, 0.02375411055982113
0, 1, 8, 0.01105376426130533
0, 2, 0, 0.03790085762739182
0, 2, 1, 0.01440553087741137
0, 2, 2, 0.0208439975976944
0, 2, 3, 0.05030317977070808
0, 2, 4, 0.04801066592335701
0, 2, 5, 0.04322478920221329
0, 2, 6, 0.02238012664020061
0, 2, 7, 0.07277120649814606
0, 2, 8, 0.01449854392558336
0, 3, 0, 0.01054990943521261
0, 3, 1, 0.0482526421546936
0, 3, 2, 0.08558910340070724
0, 3, 3, 0.07554979622364044
0, 3, 4, 0.1101273745298386
0, 3, 5, 0.05473283305764198
0, 3, 6, 0.0839751809835434
0, 3, 7, 0.1042267754673958
0, 3, 8, 0.03934831172227859
0, 4, 0, 0.02027293108403683
0, 4, 1, 0.04023388773202896
0, 4, 2, 0.03622826188802719
0, 4, 3, 0.0434521920979023
0, 4, 4, 0.0792677253484726
0, 4, 5, 0.07931181043386459
0, 4, 6, 0.08973321318626404
0, 4, 7, 0.07485652714967728
0, 4, 8, 0.08370354771614075
0, 5, 0, 0.02015930227935314
0, 5, 1, 0.07619701325893402
0, 5, 2, 0.01315237581729889
0, 5, 3, 0.02793578431010246
0, 5, 4, 0.09217055886983871
0, 5, 5, 0.01564498990774155
0, 5, 6, 0.039592444896698
0, 5, 7, 0.06455069780349731
0, 5, 8, 0.01181568950414658
0, 6, 0, 0.0336412601172924
0, 6, 1, 0.03234083577990532
0, 6, 2, 0.01042612083256245
0, 6, 3, 0.02762741222977638
0, 6, 4, 0.03712658956646919
0, 6, 5, 0.1836807727813721
0, 6, 6, 0.05609949678182602
0, 6, 7, 0.07438842952251434
0, 6, 8, 0.05149925872683525
0, 7, 0, 0
0, 7, 1, 0
0, 7, 2, 0.01723790727555752
0, 7, 3, 0.01691371016204357
0, 7, 4, 0.03980545699596405
0, 7, 5, 0.04390029609203339
0, 7, 6, 0.01493963692337275
0, 7, 7, 0
0, 7, 8, 0.01299369521439075
0, 8, 0, 0.01427071541547775
0, 8, 1, 0.01443200558423996
0, 8, 2, 0.001619091839529574
0, 8, 3, 0.01204536575824022
0, 8, 4, 0.01546831801533699
0, 8, 5, 0.04893426969647408
0, 8, 6, 0.01191192213445902
0, 8, 7, 0.01412044744938612
0, 8, 8, 0.02123495750129223
1, 0, 0, 0.01307646278291941
1, 0, 1, 0.0006931733805686235
1, 0, 2, 0.06427770107984543
1, 0, 3, 0.02895240113139153
1, 0, 4, 0.07411694526672363
1, 0, 5, 0.03102163597941399
1, 0, 6, 0.04310467839241028
1, 0, 7, 0.01383342873305082
1, 0, 8, 0.04920530691742897
1, 1, 0, 0.01385086309164762
1, 1, 1, 0.02990970946848392
1, 1, 2, 0.09401219338178635
1, 1, 3, 0.04251659289002419
1, 1, 4, 0.1035169810056686
1, 1, 5, 0.1421322822570801
1, 1, 6, 0.115044467151165
1, 1, 7, 0.06825200468301773
1, 1, 8, 0.06230476126074791
1, 2, 0, 0.02830551378428936
1, 2, 1, 0.01161046605557203
1, 2, 2, 0.1077217534184456
1, 2, 3, 0.1088961213827133
1, 2, 4, 0.1294788420200348
1, 2, 5, 0.1633262783288956
1, 2, 6, 0.118660643696785
1, 2, 7, 0.07568706572055817
1, 2, 8, 0.04946689307689667
1, 3, 0, 0.0322846807539463
1, 3, 1, 0.04515848681330681
1, 3, 2, 0.02321013435721397
1, 3, 3, 0.06215245276689529
1, 3, 4, 0.1703490614891052
1, 3, 5, 0.1294648200273514
1, 3, 6, 0.1873683333396912
1, 3, 7, 0.05459253862500191
1, 3, 8, 0.05846720561385155
1, 4, 0, 0
1, 4, 1, 0.008424403145909309
1, 4, 2, 0.09212958812713623
1, 4, 3, 0.1223147884011269
1, 4, 4, 0.1132967099547386
1, 4, 5, 0.2426105737686157
1, 4, 6, 0.1290542334318161
1, 4, 7, 0.1903112232685089
1, 4, 8, 0.06772956252098083
1, 5, 0, 0.03047513961791992
1, 5, 1, 0.008134837262332439
1, 5, 2, 0.04342357441782951
1, 5, 3, 0.07067122310400009
1, 5, 4, 0.1242258101701736
1, 5, 5, 0.1360050141811371
1, 5, 6, 0.1388308256864548
1, 5, 7, 0.09798098355531693
1, 5, 8, 0.03128357604146004
1, 6, 0, 0.03281129151582718
1, 6, 1, 0.03961245343089104
1, 6, 2, 0.05785021558403969
1, 6, 3, 0.03165527805685997
1, 6, 4, 0.1692943274974823
1, 6, 5, 0.1316610276699066
1, 6, 6, 0.1314089745283127
1, 6, 7, 0.05696476995944977
1, 6, 8, 0.08833262324333191
1, 7, 0, 0.00215293257497251
1, 7, 1, 0.03071744367480278
1, 7, 2, 0.1029906123876572
1, 7, 3, 0.1220299080014229
1, 7, 4, 0.02337131835520267
1, 7, 5, 0.03411241993308067
1, 7, 6, 0.01209787279367447
1, 7, 7, 0.03216492012143135
1, 7, 8, 0.01146571431308985
1, 8, 0, 0
1, 8, 1, 0.05020017921924591
1, 8, 2, 0.03181561082601547
1, 8, 3, 0.04350614920258522
1, 8, 4, 0.02123752050101757
1, 8, 5, 0.0955999493598938
1, 8, 6, 0.04879188910126686
1, 8, 7, 0.02309074252843857
1, 8, 8, 0.0319814495742321
2, 0, 0, 0.0293019637465477
2, 0, 1, 0
2, 0, 2, 0.03308995440602303
2, 0, 3, 0.06025506928563118
2, 0, 4, 0.06285236030817032
2, 0, 5, 0.08110623806715012
2, 0, 6, 0.07707669585943222
2, 0, 7, 0.04257994517683983
2, 0, 8, 0.02008678391575813
2, 1, 0, 0.03063230961561203
2, 1, 1, 0.01418591570109129
2, 1, 2, 0.1192400306463242
2, 1, 3, 0.07995027303695679
2, 1, 4, 0.107023224234581
2, 1, 5, 0.1354981511831284
2, 1, 6, 0.03666074573993683
2, 1, 7, 0.06566382944583893
2, 1, 8, 0.03295326232910156
2, 2, 0, 0.03077066130936146
2, 2, 1, 0.02473499439656734
2, 2, 2, 0.1749442368745804
2, 2, 3, 0.1475002616643906
2, 2, 4, 0.2356309592723846
2, 2, 5, 0.2213752120733261
2, 2, 6, 0.2499187141656876
2, 2, 7, 0.1526434570550919
2, 2, 8, 0.05289775878190994
2, 3, 0, 0.02089580148458481
2, 3, 1, 0.0485956110060215
2, 3, 2, 0.1065524518489838
2, 3, 3, 0.4156835377216339
2, 3, 4, 0.4291803538799286
2, 3, 5, 0.5512838363647461
2, 3, 6, 0.2381648868322372
2, 3, 7, 0.103340320289135
2, 3, 8, 0.06043337285518646
2, 4, 0, 0.1317883729934692
2, 4, 1, 0.1570311486721039
2, 4, 2, 0.1385651677846909
2, 4, 3, 0.3245963454246521
2, 4, 4, 0.7155269384384155
2, 4, 5, 0.5844321846961975
2, 4, 6, 0.2358973920345306
2, 4, 7, 0.1500389724969864
2, 4, 8, 0.1946012824773788
2, 5, 0, 0.07722672075033188
2, 5, 1, 0.04877063259482384
2, 5, 2, 0.0946320965886116
2, 5, 3, 0.1654396057128906
2, 5, 4, 0.2716683745384216
2, 5, 5, 0.3337602317333221
2, 5, 6, 0.2544455528259277
2, 5, 7, 0.1291523277759552
2, 5, 8, 0.05629337206482887
2, 6, 0, 0.01364507433027029
2, 6, 1, 0.01529182028025389
2, 6, 2, 0.1386512666940689
2, 6, 3, 0.1459840387105942
2, 6, 4, 0.08221060037612915
2, 6, 5, 0.1675493866205215
2, 6, 6, 0.1552444696426392
2, 6, 7, 0.1034648567438126
2, 6, 8, 0.1140743121504784
2, 7, 0, 0.04536597803235054
2, 7, 1, 0.01280904002487659
2, 7, 2, 0.06241007149219513
2, 7, 3, 0.1119132339954376
2, 7, 4, 0.1596659123897552
2, 7, 5, 0.03000046126544476
2, 7, 6, 0.09819836169481277
2, 7, 7, 0.1409448385238647
2, 7, 8, 0.05574777349829674
2, 8, 0, 0.02273417636752129
2, 8, 1, 0
2, 8, 2, 0
2, 8, 3, 0.01796095632016659
2, 8, 4, 0.08721551299095154
2, 8, 5, 0.0392564982175827
2, 8, 6, 0.05631521344184875
2, 8, 7, 0.01660091057419777
2, 8, 8, 0.0497029535472393
3, 0, 0, 0.04088511317968369
3, 0, 1, 0.02771925181150436
3, 0, 2, 0.09456431865692139
3, 0, 3, 0.0582745261490345
3, 0, 4, 0.04582482576370239
3, 0, 5, 0.1413978040218353
3, 0, 6, 0.04606608301401138
3, 0, 7, 0.04230384901165962
3, 0, 8, 0.02850796841084957
3, 1, 0, 0.03755386918783188
3, 1, 1, 0.07060830295085907
3, 1, 2, 0.05103433504700661
3, 1, 3, 0.1044790595769882
3, 1, 4, 0.1627485901117325
3, 1, 5, 0.1552045792341232
3, 1, 6, 0.07349277287721634
3, 1, 7, 0.08604346960783005
3, 1, 8, 0.01615229807794094
3, 2, 0, 0.0494229719042778
3, 2, 1, 0.03242254257202148
3, 2, 2, 0.1618143320083618
3, 2, 3, 0.1705176383256912
3, 2, 4, 0.3778925836086273
3, 2, 5, 0.4571995735168457
3, 2, 6, 0.2551010549068451
3, 2, 7, 0.168055921792984
3, 2, 8, 0.03431141749024391
3, 3, 0, 0.03024706244468689
3, 3, 1, 0.0644206777215004
3, 3, 2, 0.3244598507881165
3, 3, 3, 48.84687423706055
3, 3, 4, 1822.619262695312
3, 3, 5, 668.9747924804688
3, 3, 6, 0.6448786854743958
3, 3, 7, 0.25394007563591
3, 3, 8, 0.07455598562955856
3, 4, 0, 0.05098593235015869
3, 4, 1, 0.1041880324482918
3, 4, 2, 0.3223716616630554
3, 4, 3, 434.4028015136719
3, 4, 4, 20895.8671875
3, 4, 5, 12741.7373046875
3, 4, 6, 0.7715381979942322
3, 4, 7, 0.2376718670129776
3, 4, 8, 0.1341592222452164
3, 5, 0, 0.0320151150226593
3, 5, 1, 0.1026842296123505
3, 5, 2, 0.3032636940479279
3, 5, 3, 49.88570022583008
3, 5, 4, 1813.00732421875
3, 5, 5, 655.0083618164062
3, 5, 6, 0.6556584239006042
3, 5, 7, 0.3113928139209747
3, 5, 8, 0.07390620559453964
3, 6, 0, 0.02361670136451721
3, 6, 1, 0.09908084571361542
3, 6, 2, 0.08342166990041733
3, 6, 3, 0.3086538314819336
3, 6, 4, 0.5150131583213806
3, 6, 5, 0.4627163708209991
3, 6, 6, 0.2055206745862961
3, 6, 7, 0.1432187259197235
3, 6, 8, 0.07165561616420746
3, 7, 0, 0.0357447937130928
3, 7, 1, 0.06196772679686546
3, 7, 2, 0.1079955920577049
3, 7, 3, 0.1350508034229279
3, 7, 4, 0.1697793304920197
3, 7, 5, 0.1593214571475983
3, 7, 6, 0.100892499089241
3, 7, 7, 0.08765825629234314
3, 7, 8, 0.04061189293861389
3, 8, 0, 0.01680302061140537
3, 8, 1, 0.04602909833192825
3, 8, 2, 0.04229297488927841
3, 8, 3, 0.05639393255114555
3, 8, 4, 0.03591987490653992
3, 8, 5, 0.06806785613298416
3, 8, 6, 0.08830854296684265
3, 8, 7, 0.01325939781963825
3, 8, 8, 0.03371885046362877
4, 0, 0, 0.08003775030374527
4, 0, 1, 0.09545131027698517
4, 0, 2, 0.04620491713285446
4, 0, 3, 0.06457309424877167
4, 0, 4, 0.05254513025283813
4, 0, 5, 0.0951656848192215
4, 0, 6, 0.06455478072166443
4, 0, 7, 0.02742668613791466
4, 0, 8, 0.05760293081402779
4, 1, 0, 0.06787870824337006
4, 1, 1, 0.04716251417994499
4, 1, 2, 0.06233703345060349
4, 1, 3, 0.1435016244649887
4, 1, 4, 0.1195744276046753
4, 1, 5, 0.2068727761507034
4, 1, 6, 0.1582942306995392
4, 1, 7, 0.1139511093497276
4, 1, 8, 0.01018378976732492
4, 2, 0, 0.09237478673458099
4, 2, 1, 0.09944446384906769
4, 2, 2, 0.1297022849321365
4, 2, 3, 0.3540770411491394
4, 2, 4, 0.601820707321167
4, 2, 5, 0.5982619524002075
4, 2, 6, 0.2245045900344849
4, 2, 7, 0.08933980762958527
4, 2, 8, 0.09619911760091782
4, 3, 0, 0.0887303501367569
4, 3, 1, 0.085360087454319
4, 3, 2, 0.2590963542461395
4, 3, 3, 430.2172241210938
4, 3, 4, 20829.255859375
4, 3, 5, 12764.5048828125
4, 3, 6, 0.9235537052154541
4, 3, 7, 0.1986808180809021
4, 3, 8, 0.08518616110086441
4, 4, 0, 0.05258328095078468
4, 4, 1, 0.05742219835519791
4, 4, 2, 0.2885787189006805
4, 4, 3, 3095.42236328125
4, 4, 4, 612072.9375
4, 4, 5, 318068.15625
4, 4, 6, 1.174666166305542
4, 4, 7, 0.3722664415836334
4, 4, 8, 0.09937015175819397
4, 5, 0, 0.02128013968467712
4, 5, 1, 0.1978868395090103
4, 5, 2, 0.2489756643772125
4, 5, 3, 430.0279235839844
4, 5, 4, 20966.947265625
4, 5, 5, 12677.6865234375
4, 5, 6, 0.6559724807739258
4, 5, 7, 0.1836448460817337
4, 5, 8, 0.1378847658634186
4, 6, 0, 0.06822192668914795
4, 6, 1, 0.1189721897244453
4, 6, 2, 0.2101915925741196
4, 6, 3, 0.2356306910514832
4, 6, 4, 0.4713268578052521
4, 6, 5, 0.4872312545776367
4, 6, 6, 0.3941304385662079
4, 6, 7, 0.2118616551160812
4, 6, 8, 0.1257743388414383
4, 7, 0, 0.03117967769503593
4, 7, 1, 0.06317418813705444
4, 7, 2, 0.04273657500743866
4, 7, 3, 0.09326118230819702
4, 7, 4, 0.09447532892227173
4, 7, 5, 0.1957147717475891
4, 7, 6, 0.2331447005271912
4, 7, 7, 0.1223783046007156
4, 7, 8, 0.01081608049571514
4, 8, 0, 0.03863794356584549
4, 8, 1, 0.04723793640732765
4, 8, 2, 0.02542103826999664
4, 8, 3, 0.1231463253498077
4, 8, 4, 0.07279761880636215
4, 8, 5, 0.03575807809829712
4, 8, 6, 0.07090062648057938
4, 8, 7, 0.08572348952293396
4, 8, 8, 0.05651465430855751
5, 0, 0, 0
5, 0, 1, 0.1079082638025284
5, 0, 2, 0.04124655574560165
5, 0, 3, 0.1091666221618652
5, 0, 4, 0.04595735296607018
5, 0, 5, 0.042410958558321
5, 0, 6, 0.05613086745142937
5, 0, 7, 0.09262719750404358
5, 0, 8, 0.0151237016543746
5, 1, 0, 0.02708381041884422
5, 1, 1, 0.02824849635362625
5, 1, 2, 0.07587192207574844
5, 1, 3, 0.1590354740619659
5, 1, 4, 0.2633405327796936
5, 1, 5, 0.1069859713315964
5, 1, 6, 0.1612177789211273
5, 1, 7, 0.05381499603390694
5, 1, 8, 0
5, 2, 0, 0.02238263003528118
5, 2, 1, 0.0820993036031723
5, 2, 2, 0.170102521777153
5, 2, 3, 0.1778525710105896
5, 2, 4, 0.4517952799797058
5, 2, 5, 0.5010432004928589
5, 2, 6, 0.2383654564619064
5, 2, 7, 0.08967077732086182
5, 2, 8, 0.1008974611759186
5, 3, 0, 0.04710537195205688
5, 3, 1, 0.03688689693808556
5, 3, 2, 0.2105053812265396
5, 3, 3, 48.74352264404297
5, 3, 4, 1841.743286132812
5, 3, 5, 660.0276489257812
5, 3, 6, 0.6283420324325562
5, 3, 7, 0.2192303985357285
5, 3, 8, 0.05774017795920372
5, 4, 0, 0.03744357451796532
5, 4, 1, 0.150160163640976
5, 4, 2, 0.2552610337734222
5, 4, 3, 433.32275390625
5, 4, 4, 20803.2109375
5, 4, 5, 12764.1728515625
5, 4, 6, 0.9058284163475037
5, 4, 7, 0.2410162836313248
5, 4, 8, 0.04918781667947769
5, 5, 0, 0.07299714535474777
5, 5, 1, 0.04626347869634628
5, 5, 2, 0.2510182857513428
5, 5, 3, 48.02241516113281
5, 5, 4, 1840.7490234375
5, 5, 5, 669.44677734375
5, 5, 6, 0.3821994960308075
5, 5, 7, 0.1763002574443817
5, 5, 8, 0.0809725746512413
5, 6, 0, 0.03439648449420929
5, 6, 1, 0.04138185456395149
5, 6, 2, 0.2229590713977814
5, 6, 3, 0.2859533429145813
5, 6, 4, 0.322851151227951
5, 6, 5, 0.4283484220504761
5, 6, 6, 0.2570704817771912
5, 6, 7, 0.06301232427358627
5, 6, 8, 0.0695931538939476
5, 7, 0, 0.03762121126055717
5, 7, 1, 0.03027092106640339
5, 7, 2, 0.05417313799262047
5, 7, 3, 0.2206897884607315
5, 7, 4, 0.1190066635608673
5, 7, 5, 0.1399829685688019
5, 7, 6, 0.1422122567892075
5, 7, 7, 0.05346736684441566
5, 7, 8, 0.06362275034189224
5, 8, 0, 0.01691524311900139
5, 8, 1, 0.02536687627434731
5, 8, 2, 0.0349993072450161
5, 8, 3, 0.0788581594824791
5, 8, 4, 0.06668180227279663
5, 8, 5, 0.1231822371482849
5, 8, 6, 0.0696553960442543
5, 8, 7, 0.03742177039384842
5, 8, 8, 0.01234042271971703
6, 0, 0, 0.01188225019723177
6, 0, 1, 0.01209499686956406
6, 0, 2, 0.03879624977707863
6, 0, 3, 0.01652080938220024
6, 0, 4, 0.07122447341680527
6, 0, 5, 0.07434088736772537
6, 0, 6, 0.08156199008226395
6, 0, 7, 0.08741907775402069
6, 0, 8, 0.01923526078462601
6, 1, 0, 0.03675439581274986
6, 1, 1, 0.05047329887747765
6, 1, 2, 0.008557000197470188
6, 1, 3, 0.1395725756883621
6, 1, 4, 0.05332206562161446
6, 1, 5, 0.1101672649383545
6, 1, 6, 0.2176657319068909
6, 1, 7, 0.01080326270312071
6, 1, 8, 0.07225780934095383
6, 2, 0, 0.009291513822972775
6, 2, 1, 0.04274500533938408
6, 2, 2, 0.01347967889159918
6, 2, 3, 0.09798414260149002
6, 2, 4, 0.2161229997873306
6, 2, 5, 0.2022544592618942
6, 2, 6, 0.1046952158212662
6, 2, 7, 0.1071587651968002
6, 2, 8, 0.05164778977632523
6, 3, 0, 0.06388895213603973
6, 3, 1, 0.09567154198884964
6, 3, 2, 0.1098832041025162
6, 3, 3, 0.3208662569522858
6, 3, 4, 0.4013202786445618
6, 3, 5, 0.4774187803268433
6, 3, 6, 0.3005973994731903
6, 3, 7, 0.1965873092412949
6, 3, 8, 0.1377857476472855
6, 4, 0, 0.03524553775787354
6, 4, 1, 0.05362796038389206
6, 4, 2, 0.2061183005571365
6, 4, 3, 0.1863712966442108
6, 4, 4, 0.5004936456680298
6, 4, 5, 0.5905042290687561
6, 4, 6, 0.3627323806285858
6, 4, 7, 0.2025836259126663
6, 4, 8, 0.02028183080255985
6, 5, 0, 0.0159131046384573
6, 5, 1, 0.09837545454502106
6, 5, 2, 0.05514616519212723
6, 5, 3, 0.2319751679897308
6, 5, 4, 0.4983471035957336
6, 5, 5, 0.4794280827045441
6, 5, 6, 0.3033612370491028
6, 5, 7, 0.08570653945207596
6, 5, 8, 0.06378231197595596
6, 6, 0, 0
6, 6, 1, 0.04695753008127213
6, 6, 2, 0.03413674607872963
6, 6, 3, 0.1961285620927811
6, 6, 4, 0.2044646143913269
6, 6, 5, 0.2281048148870468
6, 6, 6, 0.160505399107933
6, 6, 7, 0.09490332007408142
6, 6, 8, 0.09959612041711807
6, 7, 0, 0
6, 7, 1, 0.06011167541146278
6, 7, 2, 0.1053987368941307
6, 7, 3, 0.07647719979286194
6, 7, 4, 0.04003061726689339
6, 7, 5, 0.1692825108766556
6, 7, 6, 0.1250326782464981
6, 7, 7, 0.1683462262153625
6, 7, 8, 0.1362955421209335
6, 8, 0, 0.01285488903522491
6, 8, 1, 0.01441449206322432
6, 8, 2, 0.08142838627099991
6, 8, 3, 0.04023602977395058
6, 8, 4, 0.03912840783596039
6, 8, 5, 0.03835496306419373
6, 8, 6, 0.02726847678422928
6, 8, 7, 0.08263418078422546
6, 8, 8, 0.01559262815862894
7, 0, 0, 0
7, 0, 1, 0.03087207116186619
7, 0, 2, 0.04428436607122421
7, 0, 3, 0
7, 0, 4, 0.05287408456206322
7, 0, 5, 0.0006312550394795835
7, 0, 6, 0.06123480945825577
7, 0, 7, 0.06582161039113998
7, 0, 8, 0.0307468343526125
7, 1, 0, 0.01699656806886196
7, 1, 1, 0
7, 1, 2, 0.05903772637248039
7, 1, 3, 0.03149363771080971
7, 1, 4, 0.04150570183992386
7, 1, 5, 0.08400244265794754
7, 1, 6, 0.07637668401002884
7, 1, 7, 0.04595977067947388
7, 1, 8, 0.1750376522541046
7, 2, 0, 0.05579178780317307
7, 2, 1, 0.07099137455224991
7, 2, 2, 0.06873125582933426
7, 2, 3, 0.1173032075166702
7, 2, 4, 0.0440761037170887
7, 2, 5, 0.1273991763591766
7, 2, 6, 0.06307105720043182
7, 2, 7, 0.07240228354930878
7, 2, 8, 0.02128036320209503
7, 3, 0, 0.0243609007447958
7, 3, 1, 0.01125197019428015
7, 3, 2, 0.08492232114076614
7, 3, 3, 0.1348747760057449
7, 3, 4, 0.08803221583366394
7, 3, 5, 0.07557198405265808
7, 3, 6, 0.2468599081039429
7, 3, 7, 0.06214162707328796
7, 3, 8, 0.0450807698071003
7, 4, 0, 0.0148976594209671
7, 4, 1, 0.03389177098870277
7, 4, 2, 0.0694241002202034
7, 4, 3, 0.1331572532653809
7, 4, 4, 0.09262120723724365
7, 4, 5, 0.2769368290901184
7, 4, 6, 0.1149386391043663
7, 4, 7, 0.1466100364923477
7, 4, 8, 0.09005937725305557
7, 5, 0, 0.01717063970863819
7, 5, 1, 0.04253033548593521
7, 5, 2, 0.1106739118695259
7, 5, 3, 0.1486142873764038
7, 5, 4, 0.1220678240060806
7, 5, 5, 0.09623686224222183
7, 5, 6, 0.07189472764730453
7, 5, 7, 0.07280770689249039
7, 5, 8, 0.04499151930212975
7, 6, 0, 0.01280732825398445
7, 6, 1, 0.01226836442947388
7, 6, 2, 0.01915952935814857
7, 6, 3, 0.03722938522696495
7, 6, 4, 0.1672865152359009
7, 6, 5, 0.07542569190263748
7, 6, 6, 0.1157779842615128
7, 6, 7, 0.04360761493444443
7, 6, 8, 0.02700366266071796
7, 7, 0, 0
7, 7, 1, 0.006514357402920723
7, 7, 2, 0.03532267361879349
7, 7, 3, 0.01913690939545631
7, 7, 4, 0.03002502024173737
7, 7, 5, 0.06159647926688194
7, 7, 6, 0.05522296205163002
7, 7, 7, 0.04591024667024612
7, 7, 8, 0.0800640732049942
7, 8, 0, 0.0263868048787117
7, 8, 1, 0.01299607381224632
7, 8, 2, 0.0004513617022894323
7, 8, 3, 0.1019157245755196
7, 8, 4, 0.01545558869838715
7, 8, 5, 0.02597961947321892
7, 8, 6, 0.02348706498742104
7, 8, 7, 0.04673487693071365
7, 8, 8, 0.0007989382138475776
8, 0, 0, 0
8, 0, 1, 0.02054149843752384
8, 0, 2, 0.04585671052336693
8, 0, 3, 0.01237981859594584
8, 0, 4, 0.02606089040637016
8, 0, 5, 0.03331656754016876
8, 0, 6, 0.0248172152787447
8, 0, 7, 0.01299491990357637
8, 0, 8, 0.0298002976924181
8, 1, 0, 0
8, 1, 1, 0.03274944797158241
8, 1, 2, 0.0003193379379808903
8, 1, 3, 0.01468791719526052
8, 1, 4, 0.009013796225190163
8, 1, 5, 0.009022452868521214
8, 1, 6, 0.02190360799431801
8, 1, 7, 0.03606679290533066
8, 1, 8, 0
8, 2, 0, 0.04803411662578583
8, 2, 1, 0.004694047849625349
8, 2, 2, 0.0483061894774437
8, 2, 3, 0.06063205748796463
8, 2, 4, 0.1288847923278809
8, 2, 5, 0.05700700730085373
8, 2, 6, 0.03366957232356071
8, 2, 7, 0.01038998086005449
8, 2, 8, 0.03131639212369919
8, 3, 0, 0.02956054732203484
8, 3, 1, 0
8, 3, 2, 0.09045261144638062
8, 3, 3, 0.01891140267252922
8, 3, 4, 0.1023106500506401
8, 3, 5, 0.04554150626063347
8, 3, 6, 0.03371040895581245
8, 3, 7, 0.04520714655518532
8, 3, 8, 0.02053048647940159
8, 4, 0, 0.01658801548182964
8, 4, 1, 0.05935521423816681
8, 4, 2, 0.01245974190533161
8, 4, 3, 0.02592329867184162
8, 4, 4, 0.01547750178724527
8, 4, 5, 0.09848438948392868
8, 4, 6, 0.05139604210853577
8, 4, 7, 0.01211155485361814
8, 4, 8, 0.0165570080280304
8, 5, 0, 0.03160520642995834
8, 5, 1, 0
8, 5, 2, 0.09820695966482162
8, 5, 3, 0.03660932183265686
8, 5, 4, 0.05889741703867912
8, 5, 5, 0.0104491226375103
8, 5, 6, 0.03872406110167503
8, 5, 7, 0.05267132073640823
8, 5, 8, 0.0003249595465604216
8, 6, 0, 0.0316743515431881
8, 6, 1, 0.03939754515886307
8, 6, 2, 0.01784227415919304
8, 6, 3, 0.02678494527935982
8, 6, 4, 0.03253297135233879
8, 6, 5, 0.04965107515454292
8, 6, 6, 0.07033023983240128
8, 6, 7, 0.01738795079290867
8, 6, 8, 0.036328986287117
8, 7, 0, 0
8, 7, 1, 0.01422813069075346
8, 7, 2, 0.02307339757680893
8, 7, 3, 0.04766696691513062
8, 7, 4, 0
8, 7, 5, 0.03221802785992622
8, 7, 6, 0.06481362134218216
8, 7, 7, 0.03025376982986927
8, 7, 8, 0.03378602117300034
8, 8, 0, 0.01495538931339979
8, 8, 1, 0.02249079197645187
8, 8, 2, 0.04496942460536957
8, 8, 3, 0.04816063493490219
8, 8, 4, 0.04742393270134926
8, 8, 5, 0.04886043444275856
8, 8, 6, 0
8, 8, 7, 0.01948119327425957
8, 8, 8, 0.01252375449985266
