# TOPAS Version: 3.7
# Parameter File: TestingDose6.txt
# Results for scorer TestingDose6
# Scored in component: Phantom
# X in 50 bins of 0.1 cm
# Y in 50 bins of 0.1 cm
# Z in 50 bins of 0.1 cm
# DoseToMedium ( Gy ) : Sum   
0, 0, 0, 1.576880137577064e-08
0, 0, 1, 9.947810575283711e-09
0, 0, 2, 9.975019921171224e-09
0, 0, 3, 1.26647261566859e-08
0, 0, 4, 3.766344391920029e-08
0, 0, 5, 1.730555609924522e-08
0, 0, 6, 3.705237361373293e-08
0, 0, 7, 2.863102643857474e-08
0, 0, 8, 2.514914143603164e-08
0, 0, 9, 1.154675821624096e-08
0, 0, 10, 2.8422096676195e-08
0, 0, 11, 7.180608552204149e-09
0, 0, 12, 2.705726664942176e-08
0, 0, 13, 1.401553539892575e-09
0, 0, 14, 9.972459302787229e-09
0, 0, 15, 6.432672616796253e-09
0, 0, 16, 6.605216373856138e-09
0, 0, 17, 3.152944216822107e-08
0, 0, 18, 1.945819505522195e-08
0, 0, 19, 5.245455625413342e-09
0, 0, 20, 1.622148282365288e-08
0, 0, 21, 3.508927903794756e-08
0, 0, 22, 1.295321805372396e-08
0, 0, 23, 2.933180143216418e-09
0, 0, 24, 1.739048016702327e-08
0, 0, 25, 1.433841934073143e-08
0, 0, 26, 8.90258355923379e-09
0, 0, 27, 2.252121866774814e-08
0, 0, 28, 2.071523041990986e-08
0, 0, 29, 8.088325564870047e-09
0, 0, 30, 2.259371356672091e-08
0, 0, 31, 1.918284020518968e-08
0, 0, 32, 2.329871229278524e-08
0, 0, 33, 2.155423040051119e-08
0, 0, 34, 2.065697302100489e-08
0, 0, 35, 6.93658019912391e-09
0, 0, 36, 1.818394856911709e-08
0, 0, 37, 1.42495961696909e-08
0, 0, 38, 1.254045489673672e-08
0, 0, 39, 1.991547371460456e-08
0, 0, 40, 1.327902943160097e-08
0, 0, 41, 8.53131787437178e-09
0, 0, 42, 4.064989678198572e-09
0, 0, 43, 9.332751460533473e-09
0, 0, 44, 3.645795665363494e-09
0, 0, 45, 2.438526269799013e-09
0, 0, 46, 1.975605457005258e-08
0, 0, 47, 1.161663210069719e-08
0, 0, 48, 1.469116295282902e-08
0, 0, 49, 2.665004883439792e-09
0, 1, 0, 1.887826783786295e-08
0, 1, 1, 1.13045501848319e-08
0, 1, 2, 1.085072387496666e-08
0, 1, 3, 2.031344870090379e-08
0, 1, 4, 1.69222791335244e-09
0, 1, 5, 3.59023779594736e-08
0, 1, 6, 2.49022455989234e-08
0, 1, 7, 2.342009430833514e-08
0, 1, 8, 1.517636327719174e-08
0, 1, 9, 1.624415624235098e-08
0, 1, 10, 2.668818943618589e-09
0, 1, 11, 2.159875833740443e-08
0, 1, 12, 6.77933442716494e-09
0, 1, 13, 2.253634612259248e-08
0, 1, 14, 2.320006586842283e-08
0, 1, 15, 1.839204344378231e-08
0, 1, 16, 2.848531011068189e-08
0, 1, 17, 7.521546940836288e-09
0, 1, 18, 2.039444524370992e-08
0, 1, 19, 1.082853273715045e-08
0, 1, 20, 3.657026326209234e-08
0, 1, 21, 2.106321339567785e-08
0, 1, 22, 8.003895324293353e-09
0, 1, 23, 3.067330212047636e-08
0, 1, 24, 1.563410734206627e-08
0, 1, 25, 1.41731408831447e-08
0, 1, 26, 2.378325980600948e-08
0, 1, 27, 3.436101536635761e-08
0, 1, 28, 1.328616949791694e-08
0, 1, 29, 1.96158591592166e-08
0, 1, 30, 2.022476941476725e-08
0, 1, 31, 3.170108797689863e-08
0, 1, 32, 2.641514029733116e-08
0, 1, 33, 3.301977002934109e-08
0, 1, 34, 2.274032517846081e-08
0, 1, 35, 6.210240766080233e-09
0, 1, 36, 8.132740703103991e-09
0, 1, 37, 1.641468116986289e-08
0, 1, 38, 9.044045512496268e-09
0, 1, 39, 2.66291060313506e-08
0, 1, 40, 1.340306621244736e-08
0, 1, 41, 1.337045230087597e-08
0, 1, 42, 8.885412405845727e-09
0, 1, 43, 7.286744097001474e-09
0, 1, 44, 7.284487235637016e-09
0, 1, 45, 8.706569909477935e-10
0, 1, 46, 1.017849449169717e-08
0, 1, 47, 1.630787060946659e-08
0, 1, 48, 4.184477653268459e-09
0, 1, 49, 2.03906704854262e-08
0, 2, 0, 1.517596892597339e-08
0, 2, 1, 1.207826105797949e-08
0, 2, 2, 4.722559410197391e-08
0, 2, 3, 1.427940343745604e-08
0, 2, 4, 1.608353095150505e-08
0, 2, 5, 2.313132618780855e-08
0, 2, 6, 1.854026088210503e-08
0, 2, 7, 1.052085174535478e-08
0, 2, 8, 2.308343738377516e-08
0, 2, 9, 4.489443483635114e-09
0, 2, 10, 8.706433796135116e-09
0, 2, 11, 1.562131224375207e-08
0, 2, 12, 1.494944790181307e-08
0, 2, 13, 1.172173647034924e-08
0, 2, 14, 1.519566161789498e-08
0, 2, 15, 8.781516847022885e-09
0, 2, 16, 1.393061399568296e-08
0, 2, 17, 3.045677132718083e-08
0, 2, 18, 1.681886985238634e-08
0, 2, 19, 3.371830459286684e-08
0, 2, 20, 2.066915882892317e-08
0, 2, 21, 1.03497601600111e-08
0, 2, 22, 1.956089867860555e-08
0, 2, 23, 2.447018943030344e-08
0, 2, 24, 3.56010936286566e-08
0, 2, 25, 2.474643423511225e-08
0, 2, 26, 2.830161882627635e-08
0, 2, 27, 1.854547271307183e-08
0, 2, 28, 2.285019462533455e-08
0, 2, 29, 1.963285001238546e-08
0, 2, 30, 2.002725274508066e-08
0, 2, 31, 1.006705208084213e-08
0, 2, 32, 1.768481716624137e-08
0, 2, 33, 1.680715300267366e-08
0, 2, 34, 1.054805576217177e-08
0, 2, 35, 1.344697864169575e-08
0, 2, 36, 1.984724029568952e-08
0, 2, 37, 1.667084426060228e-08
0, 2, 38, 1.765488910621116e-08
0, 2, 39, 1.732652066266382e-08
0, 2, 40, 2.521250053177937e-08
0, 2, 41, 2.337308302458041e-08
0, 2, 42, 1.945360850186262e-08
0, 2, 43, 1.254228187974604e-08
0, 2, 44, 2.05554648857742e-08
0, 2, 45, 1.768698076887176e-08
0, 2, 46, 1.364982793461422e-08
0, 2, 47, 1.158994855643414e-08
0, 2, 48, 1.118122217036444e-08
0, 2, 49, 5.817610393421546e-09
0, 3, 0, 1.768473545382676e-08
0, 3, 1, 1.389186810030196e-08
0, 3, 2, 8.722879307754283e-09
0, 3, 3, 1.081526335156013e-08
0, 3, 4, 3.022078232106651e-08
0, 3, 5, 2.214565597569162e-08
0, 3, 6, 2.506999052798164e-08
0, 3, 7, 3.082755029026885e-08
0, 3, 8, 2.507100482773694e-08
0, 3, 9, 2.099845630709751e-08
0, 3, 10, 1.298518270687055e-08
0, 3, 11, 2.502346063693039e-08
0, 3, 12, 2.688032019193543e-08
0, 3, 13, 2.217349326372187e-08
0, 3, 14, 3.926426472844469e-08
0, 3, 15, 2.578690327936783e-08
0, 3, 16, 3.368671031012127e-08
0, 3, 17, 1.326590393091465e-08
0, 3, 18, 2.603831816827551e-08
0, 3, 19, 3.03920728583762e-08
0, 3, 20, 3.681285321022187e-08
0, 3, 21, 1.774718860758639e-08
0, 3, 22, 3.984396812484192e-08
0, 3, 23, 2.925004238818474e-08
0, 3, 24, 1.490539425219595e-08
0, 3, 25, 1.316945574814099e-08
0, 3, 26, 1.676107785897329e-08
0, 3, 27, 2.923046338310087e-08
0, 3, 28, 1.334874699665534e-08
0, 3, 29, 2.566098089573643e-08
0, 3, 30, 2.006735577708696e-08
0, 3, 31, 3.75818451914256e-08
0, 3, 32, 1.739236665798671e-08
0, 3, 33, 1.193219922868138e-08
0, 3, 34, 1.284757900066325e-08
0, 3, 35, 2.522272346539012e-08
0, 3, 36, 1.672196070501286e-08
0, 3, 37, 1.218825484983199e-08
0, 3, 38, 1.426982709773483e-08
0, 3, 39, 2.902849161046106e-08
0, 3, 40, 9.724536731425815e-09
0, 3, 41, 5.008891967861473e-09
0, 3, 42, 8.46316527969293e-09
0, 3, 43, 2.136192200907772e-08
0, 3, 44, 1.727125820139008e-08
0, 3, 45, 3.295275385895025e-09
0, 3, 46, 8.300966136687293e-09
0, 3, 47, 2.245150731994272e-09
0, 3, 48, 1.003605376581618e-08
0, 3, 49, 9.260897826379733e-09
0, 4, 0, 2.225211126472004e-08
0, 4, 1, 1.357284507008671e-08
0, 4, 2, 1.441056873829893e-08
0, 4, 3, 2.297114320981564e-08
0, 4, 4, 1.013749706402223e-08
0, 4, 5, 4.051647906067046e-08
0, 4, 6, 2.319500325143053e-08
0, 4, 7, 2.632655515810711e-08
0, 4, 8, 4.595021607656236e-08
0, 4, 9, 4.233377381979153e-08
0, 4, 10, 2.372852137000336e-08
0, 4, 11, 3.078019261693044e-08
0, 4, 12, 3.222710986960919e-08
0, 4, 13, 4.137665765568954e-09
0, 4, 14, 2.530069664885559e-08
0, 4, 15, 2.666702414444444e-08
0, 4, 16, 1.165871665875784e-08
0, 4, 17, 7.798487189347725e-09
0, 4, 18, 4.018911781145107e-08
0, 4, 19, 3.309204288370893e-08
0, 4, 20, 3.115144764365141e-08
0, 4, 21, 2.361946904727574e-08
0, 4, 22, 2.087988271171071e-08
0, 4, 23, 1.15052367632984e-08
0, 4, 24, 1.580417396951361e-08
0, 4, 25, 1.976984798091053e-08
0, 4, 26, 2.261462483943433e-08
0, 4, 27, 1.818810346776445e-08
0, 4, 28, 1.874001398505243e-08
0, 4, 29, 1.15546860968152e-08
0, 4, 30, 3.049258623377682e-08
0, 4, 31, 2.658625319895691e-08
0, 4, 32, 1.346360267717728e-08
0, 4, 33, 2.117339015228481e-08
0, 4, 34, 1.238841385031719e-08
0, 4, 35, 4.552159182935611e-08
0, 4, 36, 8.563670661487777e-09
0, 4, 37, 1.872110466649701e-08
0, 4, 38, 2.866966575254537e-08
0, 4, 39, 1.880504818529971e-08
0, 4, 40, 9.126666533632033e-09
0, 4, 41, 3.54932638835237e-09
0, 4, 42, 1.672020744081237e-08
0, 4, 43, 1.607671329395544e-08
0, 4, 44, 1.373100833035323e-08
0, 4, 45, 1.128350834989078e-08
0, 4, 46, 2.103453766721941e-08
0, 4, 47, 9.861058636317921e-09
0, 4, 48, 0
0, 4, 49, 1.150892181556173e-08
0, 5, 0, 2.695941070385288e-08
0, 5, 1, 8.63264304484801e-09
0, 5, 2, 2.243737817764213e-08
0, 5, 3, 1.446369424229488e-08
0, 5, 4, 2.587769465378642e-08
0, 5, 5, 2.473925064805371e-08
0, 5, 6, 5.60319302067569e-09
0, 5, 7, 1.022982676346373e-08
0, 5, 8, 1.136793326139696e-08
0, 5, 9, 1.647875969013057e-08
0, 5, 10, 2.097516826893298e-08
0, 5, 11, 2.85684063072722e-08
0, 5, 12, 3.402782056127762e-08
0, 5, 13, 2.405622900880644e-08
0, 5, 14, 4.017963206592867e-08
0, 5, 15, 2.664920728534526e-08
0, 5, 16, 2.309614188789055e-08
0, 5, 17, 3.943661397443066e-08
0, 5, 18, 2.137953813985405e-08
0, 5, 19, 2.649611730021206e-08
0, 5, 20, 5.632594124449497e-08
0, 5, 21, 2.253730535528575e-08
0, 5, 22, 2.107207563994962e-08
0, 5, 23, 2.924213760024941e-08
0, 5, 24, 3.617153154777952e-08
0, 5, 25, 2.473841576033919e-08
0, 5, 26, 8.683610275284082e-09
0, 5, 27, 2.434911472448675e-08
0, 5, 28, 2.014198408062384e-08
0, 5, 29, 1.813556238516867e-08
0, 5, 30, 2.883632888028842e-08
0, 5, 31, 4.311261747602657e-08
0, 5, 32, 3.292100458907044e-08
0, 5, 33, 1.421848327964881e-08
0, 5, 34, 4.85499853652982e-08
0, 5, 35, 3.821966032546698e-08
0, 5, 36, 1.793690884710486e-08
0, 5, 37, 1.236149049788082e-08
0, 5, 38, 4.482274462702662e-08
0, 5, 39, 2.935982124085967e-08
0, 5, 40, 1.497635260250263e-08
0, 5, 41, 2.716286573445359e-08
0, 5, 42, 2.694595480079442e-08
0, 5, 43, 2.746130078890019e-08
0, 5, 44, 6.810872754670072e-09
0, 5, 45, 1.142854078040045e-08
0, 5, 46, 9.095627362398773e-09
0, 5, 47, 1.668422733303032e-08
0, 5, 48, 1.661352655446535e-08
0, 5, 49, 1.70340221927745e-08
0, 6, 0, 1.431326435152869e-08
0, 6, 1, 2.078865080079595e-08
0, 6, 2, 3.29095470874563e-08
0, 6, 3, 1.454562958969063e-08
0, 6, 4, 2.589071712577606e-08
0, 6, 5, 2.275059429734938e-08
0, 6, 6, 3.577659057896199e-08
0, 6, 7, 3.044221941195246e-08
0, 6, 8, 3.205586907029101e-08
0, 6, 9, 3.383257762834546e-08
0, 6, 10, 3.05172740411308e-08
0, 6, 11, 1.431451135402995e-08
0, 6, 12, 1.523445902762433e-08
0, 6, 13, 3.40913217655725e-08
0, 6, 14, 4.994634750232763e-08
0, 6, 15, 2.332948234595733e-08
0, 6, 16, 2.498529916294956e-08
0, 6, 17, 3.526458058900062e-08
0, 6, 18, 1.009664973850022e-08
0, 6, 19, 2.804590781835259e-09
0, 6, 20, 2.895535722302611e-08
0, 6, 21, 4.549223930894186e-08
0, 6, 22, 4.998313585247161e-08
0, 6, 23, 2.24266827331121e-08
0, 6, 24, 3.671735271382204e-08
0, 6, 25, 1.760503387515655e-08
0, 6, 26, 1.83184507562828e-08
0, 6, 27, 3.007219717687803e-08
0, 6, 28, 2.134811794007874e-08
0, 6, 29, 5.912631806381796e-08
0, 6, 30, 4.411264953319005e-08
0, 6, 31, 2.875540339175586e-08
0, 6, 32, 1.421607898066668e-08
0, 6, 33, 1.187096199117832e-08
0, 6, 34, 1.730984777736921e-08
0, 6, 35, 2.482274119586236e-08
0, 6, 36, 2.174577318214688e-08
0, 6, 37, 3.558286465477067e-08
0, 6, 38, 6.660188400786637e-09
0, 6, 39, 3.900793998923291e-08
0, 6, 40, 2.663745846120946e-08
0, 6, 41, 1.661836890320956e-08
0, 6, 42, 1.571537389111199e-08
0, 6, 43, 3.113306279445283e-09
0, 6, 44, 2.07390957740472e-08
0, 6, 45, 1.825496553919947e-08
0, 6, 46, 2.109539565253726e-08
0, 6, 47, 1.328211496343101e-08
0, 6, 48, 9.498154263098968e-09
0, 6, 49, 1.924287573729089e-08
0, 7, 0, 6.097860882903205e-09
0, 7, 1, 1.526780302185671e-08
0, 7, 2, 2.806618581985276e-08
0, 7, 3, 6.536327923356566e-09
0, 7, 4, 9.835884107189941e-09
0, 7, 5, 4.420744659228149e-08
0, 7, 6, 3.066722342737194e-08
0, 7, 7, 3.426234940206996e-08
0, 7, 8, 6.352383952190621e-09
0, 7, 9, 3.669778081416553e-08
0, 7, 10, 2.088240513842265e-08
0, 7, 11, 6.278447983731894e-08
0, 7, 12, 6.993662982068827e-09
0, 7, 13, 3.223475175673229e-08
0, 7, 14, 3.680715821019476e-08
0, 7, 15, 1.123085091592202e-08
0, 7, 16, 3.205968468478204e-08
0, 7, 17, 2.867822601615444e-08
0, 7, 18, 2.79104597211699e-08
0, 7, 19, 1.317369147102454e-08
0, 7, 20, 3.753693889052556e-08
0, 7, 21, 1.52926578067536e-08
0, 7, 22, 3.666135128810311e-08
0, 7, 23, 3.030346817922691e-08
0, 7, 24, 2.998988790636758e-08
0, 7, 25, 4.480845916532417e-08
0, 7, 26, 2.890399564137169e-08
0, 7, 27, 2.752912209302849e-08
0, 7, 28, 2.096949636154477e-08
0, 7, 29, 2.336508231337575e-08
0, 7, 30, 2.333948501131999e-08
0, 7, 31, 2.844770996546231e-08
0, 7, 32, 2.054713021948373e-08
0, 7, 33, 3.517974533906454e-08
0, 7, 34, 2.150152411672934e-08
0, 7, 35, 3.701939021993894e-08
0, 7, 36, 9.517663102087681e-09
0, 7, 37, 4.448021329039875e-08
0, 7, 38, 2.113972286110766e-08
0, 7, 39, 2.756150863092444e-08
0, 7, 40, 1.81966672840872e-08
0, 7, 41, 1.533862103997308e-08
0, 7, 42, 4.909325213020566e-08
0, 7, 43, 1.566178120526729e-08
0, 7, 44, 1.008552441561505e-08
0, 7, 45, 8.559427833176869e-09
0, 7, 46, 2.083072558889398e-08
0, 7, 47, 1.21326566571156e-08
0, 7, 48, 3.053222785709409e-09
0, 7, 49, 1.042810993112653e-08
0, 8, 0, 1.22116272649464e-08
0, 8, 1, 1.808438554462555e-08
0, 8, 2, 2.07194883472539e-08
0, 8, 3, 2.722587488790396e-08
0, 8, 4, 8.336651369234005e-09
0, 8, 5, 1.465147647650156e-08
0, 8, 6, 2.821346711812112e-08
0, 8, 7, 3.618558608309286e-08
0, 8, 8, 1.510522373848744e-08
0, 8, 9, 3.56711105098384e-08
0, 8, 10, 1.624705525671288e-08
0, 8, 11, 4.997833613629155e-08
0, 8, 12, 4.147361565287611e-08
0, 8, 13, 3.356178623903361e-08
0, 8, 14, 5.989502227521371e-08
0, 8, 15, 3.162307038451218e-08
0, 8, 16, 4.239239004277806e-08
0, 8, 17, 3.284906213707472e-08
0, 8, 18, 5.722171536604037e-08
0, 8, 19, 2.488290107294233e-08
0, 8, 20, 4.031703682016996e-08
0, 8, 21, 3.203756548941783e-08
0, 8, 22, 2.450297742484508e-08
0, 8, 23, 3.198242026769549e-08
0, 8, 24, 2.949652966321992e-08
0, 8, 25, 2.302214419103166e-08
0, 8, 26, 3.735080511546585e-08
0, 8, 27, 3.616606036871417e-08
0, 8, 28, 3.158496042487968e-08
0, 8, 29, 2.783050412347166e-08
0, 8, 30, 4.061582004055708e-08
0, 8, 31, 2.91749380210149e-08
0, 8, 32, 1.756465906055382e-08
0, 8, 33, 1.985384834313209e-08
0, 8, 34, 3.189991915064638e-08
0, 8, 35, 3.559159367227949e-08
0, 8, 36, 4.351996807372416e-08
0, 8, 37, 4.708766354610816e-08
0, 8, 38, 2.884691951976492e-08
0, 8, 39, 4.24976427382262e-08
0, 8, 40, 2.475065130624898e-08
0, 8, 41, 1.289387174807644e-08
0, 8, 42, 1.251884196307174e-08
0, 8, 43, 9.890218422015096e-09
0, 8, 44, 1.174494812516969e-08
0, 8, 45, 2.138611598923035e-08
0, 8, 46, 1.356433809718283e-08
0, 8, 47, 1.677549299472503e-08
0, 8, 48, 1.778784941564027e-08
0, 8, 49, 6.00762906088903e-09
0, 9, 0, 4.055116065160291e-08
0, 9, 1, 4.45525856207496e-08
0, 9, 2, 3.396755587914413e-08
0, 9, 3, 1.094957813307929e-08
0, 9, 4, 2.079850780489778e-08
0, 9, 5, 1.904081337045227e-08
0, 9, 6, 1.677410566003346e-08
0, 9, 7, 3.850075813716103e-08
0, 9, 8, 2.72394338196591e-08
0, 9, 9, 3.010729798802458e-08
0, 9, 10, 3.525581604435502e-08
0, 9, 11, 6.024762910783465e-08
0, 9, 12, 4.531534258944703e-08
0, 9, 13, 2.625976769365934e-08
0, 9, 14, 4.21795682825632e-08
0, 9, 15, 4.468754966069355e-08
0, 9, 16, 5.297153649053143e-08
0, 9, 17, 2.758888051346275e-08
0, 9, 18, 2.796399911630942e-08
0, 9, 19, 4.926397778604041e-08
0, 9, 20, 2.689806954947471e-08
0, 9, 21, 4.724007141021502e-08
0, 9, 22, 3.496733924635009e-08
0, 9, 23, 2.693903589090496e-08
0, 9, 24, 2.765535178639311e-08
0, 9, 25, 1.832512985799895e-08
0, 9, 26, 2.475675131563548e-08
0, 9, 27, 4.027522138017048e-08
0, 9, 28, 2.904185159025019e-08
0, 9, 29, 3.232730350077873e-08
0, 9, 30, 2.86042940444986e-08
0, 9, 31, 3.365479273043093e-08
0, 9, 32, 3.337151355253809e-08
0, 9, 33, 3.747624788275061e-08
0, 9, 34, 3.331443565457448e-08
0, 9, 35, 5.220763554802943e-08
0, 9, 36, 1.934103011080879e-08
0, 9, 37, 4.584666157825268e-08
0, 9, 38, 2.368640572569802e-08
0, 9, 39, 1.475602484646288e-08
0, 9, 40, 1.471365607130792e-08
0, 9, 41, 2.886935490664655e-08
0, 9, 42, 4.831238076263844e-09
0, 9, 43, 1.793024573260027e-08
0, 9, 44, 1.936910898336919e-08
0, 9, 45, 3.221843680734082e-09
0, 9, 46, 9.914251641873761e-09
0, 9, 47, 2.387265318759546e-08
0, 9, 48, 7.668030654883751e-09
0, 9, 49, 1.340165489693845e-08
0, 10, 0, 1.72664211817164e-08
0, 10, 1, 4.142200538126417e-08
0, 10, 2, 1.818640349426914e-08
0, 10, 3, 3.784215607538499e-08
0, 10, 4, 1.20443353068822e-08
0, 10, 5, 4.325995206500011e-08
0, 10, 6, 3.550650262695854e-08
0, 10, 7, 3.29375176022495e-08
0, 10, 8, 3.47988979854108e-08
0, 10, 9, 3.923370428537964e-08
0, 10, 10, 4.245516649348247e-08
0, 10, 11, 3.789607205817447e-08
0, 10, 12, 3.731316766675263e-08
0, 10, 13, 5.447651929557651e-08
0, 10, 14, 5.89762727543075e-08
0, 10, 15, 4.517170282269944e-08
0, 10, 16, 4.309886136866226e-08
0, 10, 17, 2.821706601707774e-08
0, 10, 18, 3.74940469782814e-08
0, 10, 19, 3.890800570616193e-08
0, 10, 20, 5.730808538828569e-08
0, 10, 21, 5.57023867031603e-08
0, 10, 22, 3.30879750265467e-08
0, 10, 23, 3.44092647708294e-08
0, 10, 24, 2.7413276981747e-08
0, 10, 25, 3.374826107460649e-08
0, 10, 26, 4.124290597928848e-08
0, 10, 27, 3.794306735471764e-08
0, 10, 28, 2.993076719803867e-08
0, 10, 29, 2.577380264767726e-08
0, 10, 30, 4.313467982797192e-08
0, 10, 31, 2.248182440212076e-08
0, 10, 32, 3.823403105229772e-08
0, 10, 33, 4.198050262971265e-08
0, 10, 34, 3.783562974035704e-08
0, 10, 35, 2.709803936795652e-08
0, 10, 36, 1.461131748925482e-08
0, 10, 37, 5.320563900568231e-08
0, 10, 38, 1.416309736157473e-08
0, 10, 39, 1.498385238107858e-08
0, 10, 40, 2.92362809517499e-08
0, 10, 41, 2.611073846026102e-08
0, 10, 42, 2.808071997151274e-08
0, 10, 43, 3.852667518344788e-08
0, 10, 44, 1.094337331863926e-08
0, 10, 45, 1.853368125637189e-08
0, 10, 46, 2.648849850572788e-08
0, 10, 47, 1.204406352428578e-09
0, 10, 48, 1.89119351290401e-08
0, 10, 49, 1.592786702531157e-08
0, 11, 0, 3.530483994040878e-08
0, 11, 1, 3.613224919263303e-08
0, 11, 2, 4.431432287788084e-08
0, 11, 3, 7.534261214914295e-08
0, 11, 4, 4.467859682222297e-08
0, 11, 5, 2.929916753657835e-08
0, 11, 6, 2.650765118517029e-08
0, 11, 7, 2.903076889992917e-08
0, 11, 8, 3.395721037691146e-08
0, 11, 9, 5.169430039586587e-08
0, 11, 10, 2.957133204972706e-08
0, 11, 11, 5.28747285954978e-08
0, 11, 12, 6.238245475742588e-08
0, 11, 13, 2.649741936977534e-08
0, 11, 14, 3.262996983721678e-08
0, 11, 15, 5.047461471008319e-08
0, 11, 16, 6.064503565994528e-08
0, 11, 17, 4.313128698640867e-08
0, 11, 18, 3.598913522750991e-08
0, 11, 19, 2.697813350494016e-08
0, 11, 20, 3.42019781385261e-08
0, 11, 21, 5.174443984401478e-08
0, 11, 22, 5.497481936345139e-08
0, 11, 23, 5.544172054783303e-08
0, 11, 24, 2.402584264871166e-08
0, 11, 25, 3.743140908341047e-08
0, 11, 26, 4.854330981629573e-08
0, 11, 27, 2.730855186428016e-08
0, 11, 28, 5.651890333524534e-08
0, 11, 29, 4.313062618166441e-08
0, 11, 30, 3.384334590350591e-08
0, 11, 31, 2.001558563335948e-08
0, 11, 32, 4.551908361349888e-08
0, 11, 33, 3.742208321000362e-08
0, 11, 34, 2.210471095054345e-08
0, 11, 35, 4.654971519357787e-08
0, 11, 36, 7.208947039316627e-08
0, 11, 37, 3.176294072204655e-08
0, 11, 38, 1.975751473537457e-08
0, 11, 39, 5.424687543609252e-08
0, 11, 40, 1.539116745163938e-08
0, 11, 41, 2.117028508052954e-08
0, 11, 42, 1.170921315463147e-08
0, 11, 43, 3.396815984046953e-08
0, 11, 44, 1.615192601889248e-08
0, 11, 45, 3.230153211575271e-08
0, 11, 46, 2.080458649800221e-08
0, 11, 47, 1.154927709023923e-08
0, 11, 48, 8.594379430348908e-09
0, 11, 49, 1.837066676557697e-08
0, 12, 0, 2.556665990027795e-08
0, 12, 1, 2.771301588211372e-08
0, 12, 2, 5.270964820169866e-08
0, 12, 3, 2.151870504008002e-08
0, 12, 4, 4.782242513101664e-08
0, 12, 5, 4.76807890947839e-08
0, 12, 6, 2.916871011393596e-08
0, 12, 7, 4.397815089873802e-08
0, 12, 8, 3.574772478032173e-08
0, 12, 9, 5.946820635926997e-08
0, 12, 10, 3.225495248670995e-08
0, 12, 11, 3.874609788567795e-08
0, 12, 12, 5.040172013082156e-08
0, 12, 13, 5.539837388823798e-08
0, 12, 14, 6.463884005825093e-08
0, 12, 15, 5.096195820897265e-08
0, 12, 16, 6.384438222539757e-08
0, 12, 17, 3.153369476649459e-08
0, 12, 18, 6.867798418852544e-08
0, 12, 19, 5.734532493306688e-08
0, 12, 20, 5.067433761496432e-08
0, 12, 21, 4.913412610108026e-08
0, 12, 22, 6.882398650986943e-08
0, 12, 23, 8.158740882890925e-08
0, 12, 24, 4.932861585871251e-08
0, 12, 25, 3.824110095251854e-08
0, 12, 26, 3.660754543943767e-08
0, 12, 27, 3.830702866025604e-08
0, 12, 28, 2.686511990646068e-08
0, 12, 29, 3.67748071994356e-08
0, 12, 30, 4.996989844130439e-08
0, 12, 31, 4.5141025140083e-08
0, 12, 32, 5.457966167909944e-08
0, 12, 33, 2.95032105412929e-08
0, 12, 34, 5.202465303000281e-08
0, 12, 35, 7.637436993945812e-08
0, 12, 36, 2.567290025012881e-08
0, 12, 37, 2.821750122450339e-08
0, 12, 38, 2.598431869671458e-08
0, 12, 39, 2.827787959347461e-08
0, 12, 40, 1.218666412228231e-08
0, 12, 41, 1.441244812383502e-08
0, 12, 42, 2.245334052020098e-08
0, 12, 43, 2.861419368116458e-08
0, 12, 44, 2.645397856326781e-08
0, 12, 45, 2.227990592018614e-08
0, 12, 46, 4.094331984560995e-08
0, 12, 47, 2.047913483238517e-08
0, 12, 48, 2.021021927589572e-08
0, 12, 49, 1.049933473495912e-08
0, 13, 0, 6.131345742232952e-08
0, 13, 1, 3.719982188954418e-08
0, 13, 2, 2.645612617868665e-08
0, 13, 3, 4.327851144125816e-08
0, 13, 4, 2.085031169940521e-08
0, 13, 5, 2.543666965948432e-08
0, 13, 6, 6.783081829553339e-08
0, 13, 7, 5.812587389186774e-08
0, 13, 8, 4.417985621785192e-08
0, 13, 9, 5.770028010942951e-08
0, 13, 10, 7.476943153505999e-08
0, 13, 11, 4.904308070763364e-08
0, 13, 12, 8.270704654478322e-08
0, 13, 13, 7.202677920759015e-08
0, 13, 14, 9.131475309231973e-08
0, 13, 15, 6.674409291917982e-08
0, 13, 16, 3.215951949187001e-08
0, 13, 17, 2.945127519637936e-08
0, 13, 18, 7.19707813345849e-08
0, 13, 19, 6.706958544100416e-08
0, 13, 20, 7.565504489548402e-08
0, 13, 21, 6.936615193353646e-08
0, 13, 22, 7.224898013191705e-08
0, 13, 23, 4.668147823849722e-08
0, 13, 24, 5.767385857780027e-08
0, 13, 25, 6.174634137323665e-08
0, 13, 26, 2.446937408251415e-08
0, 13, 27, 5.117532708709405e-08
0, 13, 28, 5.424069016157773e-08
0, 13, 29, 3.139353310643855e-08
0, 13, 30, 3.069606080430276e-08
0, 13, 31, 6.526011020469014e-08
0, 13, 32, 3.821429928052567e-08
0, 13, 33, 3.09358014760619e-08
0, 13, 34, 2.227954887246142e-08
0, 13, 35, 4.833597699871461e-08
0, 13, 36, 3.313930463377801e-08
0, 13, 37, 2.908967111636684e-08
0, 13, 38, 4.110230023002259e-08
0, 13, 39, 4.431390010495306e-08
0, 13, 40, 2.826229561492255e-08
0, 13, 41, 3.146411842180896e-08
0, 13, 42, 2.243566576964895e-08
0, 13, 43, 2.142070698596399e-08
0, 13, 44, 4.087170779598637e-08
0, 13, 45, 1.782927405713508e-08
0, 13, 46, 4.061414315970069e-08
0, 13, 47, 2.25366445505415e-08
0, 13, 48, 2.040648361401054e-08
0, 13, 49, 3.53318512225087e-08
0, 14, 0, 6.494575188753515e-08
0, 14, 1, 3.310827523250737e-08
0, 14, 2, 5.323683538449586e-08
0, 14, 3, 3.016653238319122e-08
0, 14, 4, 3.008144844329763e-08
0, 14, 5, 7.112748789950274e-08
0, 14, 6, 3.521856939414647e-08
0, 14, 7, 9.363773045834023e-08
0, 14, 8, 7.306010019192399e-08
0, 14, 9, 4.55177904257198e-08
0, 14, 10, 6.318484224721033e-08
0, 14, 11, 9.743007467477582e-08
0, 14, 12, 6.256500029167e-08
0, 14, 13, 7.147685465724862e-08
0, 14, 14, 6.992124923499432e-08
0, 14, 15, 8.126571771072122e-08
0, 14, 16, 4.801966113632261e-08
0, 14, 17, 6.992640066982858e-08
0, 14, 18, 5.676821501765517e-08
0, 14, 19, 5.826495197425174e-08
0, 14, 20, 9.221550811844281e-08
0, 14, 21, 5.102798183997947e-08
0, 14, 22, 9.213177065703348e-08
0, 14, 23, 5.254439017221557e-08
0, 14, 24, 5.457415852561098e-08
0, 14, 25, 8.735708689755484e-08
0, 14, 26, 9.01273864428731e-08
0, 14, 27, 5.549494375145514e-08
0, 14, 28, 4.544984832932641e-08
0, 14, 29, 5.323507323851118e-08
0, 14, 30, 5.041732720201253e-08
0, 14, 31, 5.482606368900633e-08
0, 14, 32, 2.600627801996325e-08
0, 14, 33, 3.862832542722572e-08
0, 14, 34, 5.006781478300582e-08
0, 14, 35, 3.618752586476148e-08
0, 14, 36, 2.297299594999913e-08
0, 14, 37, 3.391513914152711e-08
0, 14, 38, 3.7425806453939e-08
0, 14, 39, 4.889312066325147e-08
0, 14, 40, 3.401854087314859e-08
0, 14, 41, 1.148028427877534e-08
0, 14, 42, 2.450937408582377e-08
0, 14, 43, 9.591270888620329e-09
0, 14, 44, 1.594504261959173e-08
0, 14, 45, 2.557976053196853e-08
0, 14, 46, 2.708640778337212e-08
0, 14, 47, 1.25419914454028e-08
0, 14, 48, 1.29052359909565e-08
0, 14, 49, 9.659263611183633e-09
0, 15, 0, 2.71461306766696e-08
0, 15, 1, 4.471212733392349e-08
0, 15, 2, 8.519618432956122e-08
0, 15, 3, 5.257009050296801e-08
0, 15, 4, 5.05605157741229e-08
0, 15, 5, 4.033766742850275e-08
0, 15, 6, 7.042913807708828e-08
0, 15, 7, 6.310604305781453e-08
0, 15, 8, 3.752415977942292e-08
0, 15, 9, 9.164877923240056e-08
0, 15, 10, 6.139462982446275e-08
0, 15, 11, 5.502364430753914e-08
0, 15, 12, 7.566836046635217e-08
0, 15, 13, 1.188620046832511e-07
0, 15, 14, 5.769503275132593e-08
0, 15, 15, 7.050145711673395e-08
0, 15, 16, 6.819246323175321e-08
0, 15, 17, 6.687012898964895e-08
0, 15, 18, 7.980751348668491e-08
0, 15, 19, 1.057174614516043e-07
0, 15, 20, 5.699671490333458e-08
0, 15, 21, 7.977007498993771e-08
0, 15, 22, 7.122254430669273e-08
0, 15, 23, 8.877398727236141e-08
0, 15, 24, 7.541630253626863e-08
0, 15, 25, 6.173833355660463e-08
0, 15, 26, 6.649121786495016e-08
0, 15, 27, 4.112530405109283e-08
0, 15, 28, 4.534347297635577e-08
0, 15, 29, 6.040740174739767e-08
0, 15, 30, 5.521814117059876e-08
0, 15, 31, 6.442799360684148e-08
0, 15, 32, 5.093986032989051e-08
0, 15, 33, 2.647083618967372e-08
0, 15, 34, 2.718148728320102e-08
0, 15, 35, 5.735281760621547e-08
0, 15, 36, 2.684010702580508e-08
0, 15, 37, 3.865759623522536e-08
0, 15, 38, 3.8458196627289e-08
0, 15, 39, 4.586849300380891e-08
0, 15, 40, 2.262956755316736e-08
0, 15, 41, 2.875698257298609e-08
0, 15, 42, 3.513879320848901e-08
0, 15, 43, 1.004080285582631e-08
0, 15, 44, 1.2344609778836e-08
0, 15, 45, 1.548258410366543e-08
0, 15, 46, 1.110031977447079e-08
0, 15, 47, 8.031584286527504e-09
0, 15, 48, 3.114173097173989e-08
0, 15, 49, 1.115960301945051e-08
0, 16, 0, 4.244790119400932e-08
0, 16, 1, 4.758274840810373e-08
0, 16, 2, 5.609622633073741e-08
0, 16, 3, 5.364997335277621e-08
0, 16, 4, 4.652048701814238e-08
0, 16, 5, 4.901483308117349e-08
0, 16, 6, 6.373885241828248e-08
0, 16, 7, 7.660244705220975e-08
0, 16, 8, 5.203278874432726e-08
0, 16, 9, 7.799122414553494e-08
0, 16, 10, 5.092024935038353e-08
0, 16, 11, 5.205859210377639e-08
0, 16, 12, 6.740138758232206e-08
0, 16, 13, 1.230904729254689e-07
0, 16, 14, 7.474977792298887e-08
0, 16, 15, 1.447899080631032e-07
0, 16, 16, 7.922910327806676e-08
0, 16, 17, 1.09530333247676e-07
0, 16, 18, 8.522024330659406e-08
0, 16, 19, 8.794854267080154e-08
0, 16, 20, 9.538693035437973e-08
0, 16, 21, 6.108303551854988e-08
0, 16, 22, 5.284332971200456e-08
0, 16, 23, 6.949725417371155e-08
0, 16, 24, 4.868705616445368e-08
0, 16, 25, 7.05246918641933e-08
0, 16, 26, 5.206634057230985e-08
0, 16, 27, 5.020124405064053e-08
0, 16, 28, 6.494008175650379e-08
0, 16, 29, 6.206345659620638e-08
0, 16, 30, 4.010720289215897e-08
0, 16, 31, 6.724923196088639e-08
0, 16, 32, 4.051356583545385e-08
0, 16, 33, 7.99454369371233e-08
0, 16, 34, 3.941543980090501e-08
0, 16, 35, 3.745939736177206e-08
0, 16, 36, 4.03672721915882e-08
0, 16, 37, 2.53725715992914e-08
0, 16, 38, 4.42233485387078e-08
0, 16, 39, 6.044952272077353e-08
0, 16, 40, 4.612769188838683e-08
0, 16, 41, 2.390905962101897e-08
0, 16, 42, 5.415783732587443e-08
0, 16, 43, 3.076888788200449e-08
0, 16, 44, 1.676187544319419e-08
0, 16, 45, 3.861942587946032e-08
0, 16, 46, 3.402503878646712e-08
0, 16, 47, 5.400333957794601e-09
0, 16, 48, 4.015920040956189e-08
0, 16, 49, 2.769526830093128e-08
0, 17, 0, 5.252373114217335e-08
0, 17, 1, 3.396847958470062e-08
0, 17, 2, 4.678048881601171e-08
0, 17, 3, 4.189009317201453e-08
0, 17, 4, 1.033169994002492e-07
0, 17, 5, 7.262543277875011e-08
0, 17, 6, 1.193105276797723e-07
0, 17, 7, 9.358574004636466e-08
0, 17, 8, 1.033376904047145e-07
0, 17, 9, 7.253824207964499e-08
0, 17, 10, 7.996742823479508e-08
0, 17, 11, 1.125227484521929e-07
0, 17, 12, 8.76847039421591e-08
0, 17, 13, 9.580399051856148e-08
0, 17, 14, 9.764387698396604e-08
0, 17, 15, 8.033527620909808e-08
0, 17, 16, 7.670142565530114e-08
0, 17, 17, 5.508278277943646e-08
0, 17, 18, 1.069124522246057e-07
0, 17, 19, 7.909400778771669e-08
0, 17, 20, 7.914625399507713e-08
0, 17, 21, 6.88456935904469e-08
0, 17, 22, 7.28429085938842e-08
0, 17, 23, 7.388900513660701e-08
0, 17, 24, 9.230932818127258e-08
0, 17, 25, 1.497471657785354e-07
0, 17, 26, 3.953479676965799e-08
0, 17, 27, 6.639064764613067e-08
0, 17, 28, 5.760469079518771e-08
0, 17, 29, 5.04036741233449e-08
0, 17, 30, 6.550558140361318e-08
0, 17, 31, 4.139675979786261e-08
0, 17, 32, 9.122324229338119e-08
0, 17, 33, 4.45190018183439e-08
0, 17, 34, 5.843306638553258e-08
0, 17, 35, 4.417302079673391e-08
0, 17, 36, 6.200099278430571e-08
0, 17, 37, 4.044045809337149e-08
0, 17, 38, 6.243504202529948e-08
0, 17, 39, 4.116099461271006e-08
0, 17, 40, 2.792832987097427e-08
0, 17, 41, 4.360409988635183e-08
0, 17, 42, 2.81928986822777e-08
0, 17, 43, 1.901777757495893e-08
0, 17, 44, 1.881402234005236e-08
0, 17, 45, 1.942708038882301e-08
0, 17, 46, 3.787182123460298e-08
0, 17, 47, 3.564588624271892e-08
0, 17, 48, 1.559529749783906e-08
0, 17, 49, 9.525255251219278e-09
0, 18, 0, 4.102158257524025e-08
0, 18, 1, 4.846003065495097e-08
0, 18, 2, 6.124978568777806e-08
0, 18, 3, 3.747256727137938e-08
0, 18, 4, 5.91741411426483e-08
0, 18, 5, 8.337426038451667e-08
0, 18, 6, 6.135721974942498e-08
0, 18, 7, 1.224729686555293e-07
0, 18, 8, 1.046944504423664e-07
0, 18, 9, 1.386609227438385e-07
0, 18, 10, 5.762578680901242e-08
0, 18, 11, 1.342611284371742e-07
0, 18, 12, 8.06450373147527e-08
0, 18, 13, 1.490598862119441e-07
0, 18, 14, 1.256177881714393e-07
0, 18, 15, 1.233738089467806e-07
0, 18, 16, 5.64789246482178e-08
0, 18, 17, 1.202703572289465e-07
0, 18, 18, 1.235563047430333e-07
0, 18, 19, 1.024685332140507e-07
0, 18, 20, 9.631855846237158e-08
0, 18, 21, 1.03991432354178e-07
0, 18, 22, 9.758401375847825e-08
0, 18, 23, 7.793222778218478e-08
0, 18, 24, 6.170881761136116e-08
0, 18, 25, 4.873836445540292e-08
