# TOPAS Version: 3.7
# Parameter File: TestingDose1.txt
# Results for scorer TestingDose1
# Scored in component: Phantom
# X in 50 bins of 0.1 cm
# Y in 50 bins of 0.1 cm
# Z in 50 bins of 0.1 cm
# DoseToMedium ( Gy ) : Sum   
0, 0, 0, 3.204190246464123e-09
0, 0, 1, 9.332875805512231e-09
0, 0, 2, 4.173726253497989e-09
0, 0, 3, 3.177390794917301e-08
0, 0, 4, 4.403228892613242e-09
0, 0, 5, 5.882836884296694e-09
0, 0, 6, 6.63710730819389e-09
0, 0, 7, 1.056618259553943e-08
0, 0, 8, 1.849564412736981e-08
0, 0, 9, 1.186538778341628e-08
0, 0, 10, 4.687934929137327e-09
0, 0, 11, 1.884886735581404e-08
0, 0, 12, 1.65278404296032e-08
0, 0, 13, 2.541730159677513e-09
0, 0, 14, 1.197658505702748e-08
0, 0, 15, 4.171400114216794e-09
0, 0, 16, 1.046243802704794e-08
0, 0, 17, 9.631746955562903e-09
0, 0, 18, 7.161356840867938e-09
0, 0, 19, 2.549801259021933e-09
0, 0, 20, 1.22385115375323e-08
0, 0, 21, 5.171441941342891e-09
0, 0, 22, 1.041702457627025e-08
0, 0, 23, 5.469598995944125e-09
0, 0, 24, 6.120815854160355e-09
0, 0, 25, 3.865272102387962e-09
0, 0, 26, 1.365204216341454e-08
0, 0, 27, 9.802335831921027e-09
0, 0, 28, 4.750473792114462e-09
0, 0, 29, 1.211095401743023e-08
0, 0, 30, 3.403427317749674e-09
0, 0, 31, 7.110521060837982e-09
0, 0, 32, 1.063918197985458e-08
0, 0, 33, 1.391046478005364e-08
0, 0, 34, 7.790005973618008e-09
0, 0, 35, 1.058209520010678e-08
0, 0, 36, 1.831449303324462e-08
0, 0, 37, 2.690806155669634e-08
0, 0, 38, 1.243283609397849e-08
0, 0, 39, 1.031758234404379e-08
0, 0, 40, 1.10871871683571e-08
0, 0, 41, 7.992267292422639e-09
0, 0, 42, 4.479750792540926e-09
0, 0, 43, 2.099676343902956e-08
0, 0, 44, 1.729617338241951e-09
0, 0, 45, 1.339704347458337e-09
0, 0, 46, 8.116814775860348e-09
0, 0, 47, 1.846904673641347e-08
0, 0, 48, 4.112461038374704e-09
0, 0, 49, 5.246040490902715e-09
0, 1, 0, 4.126935237991347e-09
0, 1, 1, 1.698329654686859e-08
0, 1, 2, 2.413281796620481e-09
0, 1, 3, 1.159588958188351e-08
0, 1, 4, 2.377409158427213e-09
0, 1, 5, 9.954995938699085e-09
0, 1, 6, 1.371743274525272e-09
0, 1, 7, 3.631430267603264e-09
0, 1, 8, 1.97278140490198e-08
0, 1, 9, 2.014237665548535e-09
0, 1, 10, 9.38616118162372e-09
0, 1, 11, 8.636922288474125e-09
0, 1, 12, 3.925366343082715e-08
0, 1, 13, 1.980104613608091e-08
0, 1, 14, 1.114171066518566e-08
0, 1, 15, 8.070553114691847e-09
0, 1, 16, 1.633270230172457e-08
0, 1, 17, 3.181435115351405e-09
0, 1, 18, 2.917360220067167e-08
0, 1, 19, 1.193307674896005e-08
0, 1, 20, 4.59750282288951e-09
0, 1, 21, 1.223427759100559e-08
0, 1, 22, 3.173462159722362e-09
0, 1, 23, 2.227828410639177e-08
0, 1, 24, 1.287683293327291e-08
0, 1, 25, 1.018493733795367e-08
0, 1, 26, 8.688316732730073e-09
0, 1, 27, 3.522051761351008e-09
0, 1, 28, 6.488566572926402e-09
0, 1, 29, 0
0, 1, 30, 4.579777446167554e-09
0, 1, 31, 7.287220160634433e-09
0, 1, 32, 4.830152278145761e-09
0, 1, 33, 7.077551433809504e-09
0, 1, 34, 9.267902001397488e-09
0, 1, 35, 7.146846225936088e-09
0, 1, 36, 1.523424408844676e-08
0, 1, 37, 6.067403246490244e-10
0, 1, 38, 9.054813787656713e-09
0, 1, 39, 8.55068904570544e-09
0, 1, 40, 8.55412451983284e-09
0, 1, 41, 1.42341001208024e-08
0, 1, 42, 3.61460261721902e-09
0, 1, 43, 3.728496622557032e-09
0, 1, 44, 4.857369617639051e-09
0, 1, 45, 4.496825134481242e-09
0, 1, 46, 1.12231992588363e-08
0, 1, 47, 2.564954471040437e-09
0, 1, 48, 4.554993715544242e-09
0, 1, 49, 1.485094491826544e-09
0, 2, 0, 6.026702692452091e-09
0, 2, 1, 8.764539316530318e-09
0, 2, 2, 1.007418592990916e-08
0, 2, 3, 5.689511972661876e-09
0, 2, 4, 5.129083380239763e-09
0, 2, 5, 5.151048032558947e-09
0, 2, 6, 1.204721922221097e-08
0, 2, 7, 1.176678843251011e-08
0, 2, 8, 9.497485464748934e-09
0, 2, 9, 1.072947330982288e-08
0, 2, 10, 5.452181817133805e-09
0, 2, 11, 7.298762483287646e-09
0, 2, 12, 1.073713296051437e-08
0, 2, 13, 1.670503380069022e-08
0, 2, 14, 6.492725912465858e-09
0, 2, 15, 5.028641947291135e-09
0, 2, 16, 1.409900640680917e-08
0, 2, 17, 2.14075157600746e-08
0, 2, 18, 2.079624916717648e-09
0, 2, 19, 3.126076064674521e-09
0, 2, 20, 8.052061239993691e-09
0, 2, 21, 1.476682687240327e-08
0, 2, 22, 8.601356071835653e-09
0, 2, 23, 9.79240510901036e-09
0, 2, 24, 1.727833520703825e-08
0, 2, 25, 1.04715072168915e-08
0, 2, 26, 2.200883386649366e-08
0, 2, 27, 2.027036094531809e-09
0, 2, 28, 9.212310914108457e-09
0, 2, 29, 1.082386735795637e-09
0, 2, 30, 9.124959454709369e-09
0, 2, 31, 1.918900949249291e-08
0, 2, 32, 6.068988422924804e-09
0, 2, 33, 7.018899239596976e-09
0, 2, 34, 8.767061743242266e-09
0, 2, 35, 2.701546764072305e-09
0, 2, 36, 1.300367280521186e-08
0, 2, 37, 1.672304072997122e-08
0, 2, 38, 9.460011440864946e-09
0, 2, 39, 9.464883987675421e-09
0, 2, 40, 3.948244398088718e-09
0, 2, 41, 1.206991306901273e-08
0, 2, 42, 1.584639641727392e-09
0, 2, 43, 2.159947332103229e-09
0, 2, 44, 1.232733737310809e-08
0, 2, 45, 3.189060349129136e-09
0, 2, 46, 1.348829936631546e-08
0, 2, 47, 1.227502210987552e-09
0, 2, 48, 1.068636290568747e-08
0, 2, 49, 2.45543207988419e-09
0, 3, 0, 7.487371611603066e-09
0, 3, 1, 1.035719243702715e-08
0, 3, 2, 1.023408646716462e-08
0, 3, 3, 1.102957192244958e-08
0, 3, 4, 1.305086261282895e-08
0, 3, 5, 4.282715071468601e-09
0, 3, 6, 1.807939398190683e-08
0, 3, 7, 1.079748290777616e-08
0, 3, 8, 1.549693706692779e-08
0, 3, 9, 2.486486350150585e-09
0, 3, 10, 1.144922645579527e-08
0, 3, 11, 9.562157288200979e-09
0, 3, 12, 1.106967673081272e-08
0, 3, 13, 1.419872308616732e-08
0, 3, 14, 8.814210694652047e-09
0, 3, 15, 1.00253920720661e-08
0, 3, 16, 7.508727861704756e-09
0, 3, 17, 2.062764714594323e-08
0, 3, 18, 1.724896314669877e-08
0, 3, 19, 5.786746193336967e-09
0, 3, 20, 3.93455534819509e-09
0, 3, 21, 2.09327533085002e-09
0, 3, 22, 1.192366827496016e-08
0, 3, 23, 1.5463132996274e-08
0, 3, 24, 1.129072124683717e-08
0, 3, 25, 1.943950245220094e-08
0, 3, 26, 6.962531440279918e-09
0, 3, 27, 1.175811892295542e-08
0, 3, 28, 7.131538914961766e-09
0, 3, 29, 7.194622231310177e-09
0, 3, 30, 1.591697262881553e-08
0, 3, 31, 5.885960163709569e-09
0, 3, 32, 1.468750721045353e-08
0, 3, 33, 4.573076584080127e-09
0, 3, 34, 1.084280132346294e-08
0, 3, 35, 6.192727219911376e-09
0, 3, 36, 6.002101482494027e-09
0, 3, 37, 1.093307044897074e-08
0, 3, 38, 3.928670277986157e-09
0, 3, 39, 1.06194217863731e-08
0, 3, 40, 1.009711692034898e-08
0, 3, 41, 9.868740269425302e-10
0, 3, 42, 9.923511790077555e-09
0, 3, 43, 6.223663362447951e-09
0, 3, 44, 1.05678585882174e-08
0, 3, 45, 6.804248720015948e-09
0, 3, 46, 1.367885626990528e-08
0, 3, 47, 1.27789441251025e-08
0, 3, 48, 3.753315880317132e-09
0, 3, 49, 4.395660724298978e-09
0, 4, 0, 1.200885968444254e-08
0, 4, 1, 1.127179860560545e-08
0, 4, 2, 1.632134427609344e-08
0, 4, 3, 4.901044015070966e-09
0, 4, 4, 9.815824597581013e-09
0, 4, 5, 1.401647509169379e-08
0, 4, 6, 1.296966445352155e-08
0, 4, 7, 7.945894608951676e-09
0, 4, 8, 1.527106974208436e-08
0, 4, 9, 1.358657630845528e-08
0, 4, 10, 8.021566522131707e-09
0, 4, 11, 1.420226691806192e-08
0, 4, 12, 1.086198953004214e-08
0, 4, 13, 2.58684873521986e-09
0, 4, 14, 1.951606165562225e-08
0, 4, 15, 1.052755127517457e-08
0, 4, 16, 1.741918609354798e-08
0, 4, 17, 2.017458733405419e-08
0, 4, 18, 1.95163476490734e-08
0, 4, 19, 1.322150566807068e-08
0, 4, 20, 1.900854051939405e-08
0, 4, 21, 7.322050965541393e-09
0, 4, 22, 8.425741881978865e-09
0, 4, 23, 1.065867216709648e-08
0, 4, 24, 5.574499528648857e-09
0, 4, 25, 6.080214998149813e-09
0, 4, 26, 1.904244051331716e-08
0, 4, 27, 6.401814633960612e-09
0, 4, 28, 1.794686355083286e-08
0, 4, 29, 1.435714924724607e-08
0, 4, 30, 2.153248912506456e-09
0, 4, 31, 1.811152117170423e-08
0, 4, 32, 7.081449648893567e-09
0, 4, 33, 1.576136021697039e-08
0, 4, 34, 1.04670032641252e-08
0, 4, 35, 6.412916420117654e-09
0, 4, 36, 4.899415984027655e-09
0, 4, 37, 4.930338359798725e-09
0, 4, 38, 2.035621449181235e-08
0, 4, 39, 1.546041161759604e-08
0, 4, 40, 8.609722712549228e-09
0, 4, 41, 8.683976204792998e-09
0, 4, 42, 1.218925049784048e-08
0, 4, 43, 6.495943338791221e-09
0, 4, 44, 7.81253994830422e-09
0, 4, 45, 1.760431977970711e-08
0, 4, 46, 6.495116444682481e-09
0, 4, 47, 6.840422450693495e-09
0, 4, 48, 1.021003459555914e-08
0, 4, 49, 7.119390854626317e-09
0, 5, 0, 1.277437355895472e-08
0, 5, 1, 1.623776807457844e-10
0, 5, 2, 1.989650932898712e-08
0, 5, 3, 1.61334963166837e-08
0, 5, 4, 8.753175961828674e-09
0, 5, 5, 1.118477488404324e-08
0, 5, 6, 3.961362082804953e-08
0, 5, 7, 8.833725750889698e-09
0, 5, 8, 1.549919836918434e-08
0, 5, 9, 1.758804835105821e-08
0, 5, 10, 8.709242216298207e-09
0, 5, 11, 1.904796675944453e-08
0, 5, 12, 7.850559313737904e-09
0, 5, 13, 9.723757798951738e-09
0, 5, 14, 1.659102011331015e-08
0, 5, 15, 1.108371794344976e-08
0, 5, 16, 9.756853991405023e-09
0, 5, 17, 1.559647699878042e-08
0, 5, 18, 1.059463716757136e-08
0, 5, 19, 2.987890157513107e-09
0, 5, 20, 8.956039465601862e-09
0, 5, 21, 6.525464169016004e-09
0, 5, 22, 1.012107997411249e-08
0, 5, 23, 2.329014314739197e-08
0, 5, 24, 1.462868759460889e-08
0, 5, 25, 2.090392037246147e-08
0, 5, 26, 5.039455075461774e-09
0, 5, 27, 2.325166503780451e-09
0, 5, 28, 8.751267266404739e-09
0, 5, 29, 1.055103826530512e-08
0, 5, 30, 1.472452293427295e-08
0, 5, 31, 2.202966697950615e-08
0, 5, 32, 3.029345307936637e-08
0, 5, 33, 2.019623579485597e-08
0, 5, 34, 1.545160621674313e-08
0, 5, 35, 3.117189706358658e-08
0, 5, 36, 1.025102580598514e-08
0, 5, 37, 1.701548058008484e-08
0, 5, 38, 3.639926760001799e-08
0, 5, 39, 1.073262634321281e-08
0, 5, 40, 1.027820850652006e-08
0, 5, 41, 8.686371621990929e-09
0, 5, 42, 2.498289575214585e-08
0, 5, 43, 2.78615335247423e-08
0, 5, 44, 1.09540332360325e-08
0, 5, 45, 5.914047473964956e-09
0, 5, 46, 1.153845197165992e-08
0, 5, 47, 2.914315366808751e-08
0, 5, 48, 7.137659352451919e-09
0, 5, 49, 7.543218494276971e-09
0, 6, 0, 1.487039202885398e-08
0, 6, 1, 5.004376912864927e-09
0, 6, 2, 1.898333223948612e-08
0, 6, 3, 1.515078373870438e-08
0, 6, 4, 9.138275913755933e-09
0, 6, 5, 8.055806688389566e-09
0, 6, 6, 6.873054125833278e-09
0, 6, 7, 1.732338716919912e-08
0, 6, 8, 1.056432097357174e-08
0, 6, 9, 5.352540632941327e-09
0, 6, 10, 2.875313320771511e-08
0, 6, 11, 1.499436308449731e-08
0, 6, 12, 2.533780119051698e-08
0, 6, 13, 1.328129273225898e-09
0, 6, 14, 1.744620270471842e-08
0, 6, 15, 1.24705001880443e-08
0, 6, 16, 1.476363475916287e-08
0, 6, 17, 1.349836153963224e-08
0, 6, 18, 8.562598630135199e-09
0, 6, 19, 6.579446321097748e-09
0, 6, 20, 1.294993623446317e-08
0, 6, 21, 2.804001475453788e-08
0, 6, 22, 1.401759064378894e-08
0, 6, 23, 1.471268085140309e-08
0, 6, 24, 1.419362138932456e-08
0, 6, 25, 4.095983552332427e-09
0, 6, 26, 4.715890344897389e-09
0, 6, 27, 7.543943247867446e-09
0, 6, 28, 7.379528987883077e-09
0, 6, 29, 1.253642611942496e-08
0, 6, 30, 1.37077069695124e-08
0, 6, 31, 7.962642989411961e-09
0, 6, 32, 4.608663228822252e-09
0, 6, 33, 1.181579367681707e-08
0, 6, 34, 1.029437246558018e-08
0, 6, 35, 2.149571720622134e-08
0, 6, 36, 1.830868789909346e-08
0, 6, 37, 1.520655601439103e-08
0, 6, 38, 5.689645643514041e-09
0, 6, 39, 1.3878434401704e-08
0, 6, 40, 5.578436823583388e-09
0, 6, 41, 1.750080080853422e-08
0, 6, 42, 2.077609728701191e-08
0, 6, 43, 3.922391744737297e-09
0, 6, 44, 1.248706471557171e-08
0, 6, 45, 5.160521787672678e-09
0, 6, 46, 3.819908833690988e-09
0, 6, 47, 1.176169739380839e-08
0, 6, 48, 1.058095300265904e-08
0, 6, 49, 1.119551296113741e-08
0, 7, 0, 1.064956212104562e-08
0, 7, 1, 9.597823869000877e-09
0, 7, 2, 1.528282922436119e-08
0, 7, 3, 1.235680269218165e-08
0, 7, 4, 1.582907671604517e-08
0, 7, 5, 1.897728196809112e-09
0, 7, 6, 6.319879730654065e-09
0, 7, 7, 2.581184155303617e-09
0, 7, 8, 1.294215756786343e-08
0, 7, 9, 5.119727308766642e-09
0, 7, 10, 2.383805330907762e-08
0, 7, 11, 1.479377687019223e-08
0, 7, 12, 7.127159307174225e-09
0, 7, 13, 8.911093196672937e-09
0, 7, 14, 3.064598885771375e-08
0, 7, 15, 1.780732894474113e-08
0, 7, 16, 1.526782611449562e-08
0, 7, 17, 1.471082011761382e-08
0, 7, 18, 6.803084762196931e-09
0, 7, 19, 1.337692001612822e-08
0, 7, 20, 1.267927363102217e-08
0, 7, 21, 7.790270650787079e-09
0, 7, 22, 1.042771913262186e-08
0, 7, 23, 8.512689220196989e-09
0, 7, 24, 1.991988263227995e-08
0, 7, 25, 2.362381756881859e-08
0, 7, 26, 1.612032107800587e-08
0, 7, 27, 5.215768705824075e-09
0, 7, 28, 1.738322907840484e-08
0, 7, 29, 1.66104090482122e-08
0, 7, 30, 8.646910742982072e-09
0, 7, 31, 8.361111802912546e-09
0, 7, 32, 2.577666080583185e-08
0, 7, 33, 1.207404221048591e-08
0, 7, 34, 1.030091389964127e-08
0, 7, 35, 1.379459746431166e-08
0, 7, 36, 6.604476521232527e-09
0, 7, 37, 1.02168948856729e-08
0, 7, 38, 9.374471865442047e-09
0, 7, 39, 3.197531484033789e-08
0, 7, 40, 8.643912252637165e-09
0, 7, 41, 1.081895817378609e-08
0, 7, 42, 1.204807809074282e-08
0, 7, 43, 5.351716403367845e-09
0, 7, 44, 4.875734038733981e-09
0, 7, 45, 1.142106231810658e-08
0, 7, 46, 6.740914937353182e-09
0, 7, 47, 5.071132402889589e-09
0, 7, 48, 8.232495574134191e-09
0, 7, 49, 4.009470977450746e-09
0, 8, 0, 3.480060462024426e-09
0, 8, 1, 2.500385676285077e-08
0, 8, 2, 8.859109890124728e-09
0, 8, 3, 1.436934793375144e-09
0, 8, 4, 1.710633057427913e-08
0, 8, 5, 2.097851137250473e-08
0, 8, 6, 3.820059824022337e-09
0, 8, 7, 1.447568198642557e-08
0, 8, 8, 2.395533194032851e-08
0, 8, 9, 1.888924749948728e-08
0, 8, 10, 2.259613474109301e-08
0, 8, 11, 5.203905750761351e-09
0, 8, 12, 1.372789260045693e-08
0, 8, 13, 1.512842828788052e-08
0, 8, 14, 1.277422789769389e-08
0, 8, 15, 1.123375970024654e-08
0, 8, 16, 1.383544656619051e-08
0, 8, 17, 2.327205450569636e-08
0, 8, 18, 2.546240018830304e-08
0, 8, 19, 3.089521527499528e-08
0, 8, 20, 2.122217956923578e-08
0, 8, 21, 4.423398536346212e-09
0, 8, 22, 1.518172609848989e-08
0, 8, 23, 1.709780939052052e-08
0, 8, 24, 3.14999759609691e-08
0, 8, 25, 2.434606827250718e-08
0, 8, 26, 4.523798224909115e-09
0, 8, 27, 9.587215465955978e-09
0, 8, 28, 1.460802678820983e-08
0, 8, 29, 6.623390724769251e-09
0, 8, 30, 1.022508477888096e-08
0, 8, 31, 1.250900893978724e-08
0, 8, 32, 1.996743925758437e-08
0, 8, 33, 2.426552292433826e-08
0, 8, 34, 3.433533679597645e-09
0, 8, 35, 1.531137527877036e-08
0, 8, 36, 1.458419340849559e-08
0, 8, 37, 5.536000546868536e-09
0, 8, 38, 8.006753482447948e-09
0, 8, 39, 2.295248968664509e-08
0, 8, 40, 4.16957579574273e-09
0, 8, 41, 2.202564175490807e-08
0, 8, 42, 1.762431867113889e-09
0, 8, 43, 1.078037126234221e-08
0, 8, 44, 2.026754586381685e-08
0, 8, 45, 3.072708310014605e-09
0, 8, 46, 9.642918463725891e-09
0, 8, 47, 9.136829959288661e-09
0, 8, 48, 7.099058674242542e-09
0, 8, 49, 1.386069925501943e-08
0, 9, 0, 1.681440053857841e-08
0, 9, 1, 1.406963079375601e-08
0, 9, 2, 2.067347848466738e-09
0, 9, 3, 1.878351696404934e-08
0, 9, 4, 4.350245941253661e-09
0, 9, 5, 5.713939543738888e-09
0, 9, 6, 4.10353493407456e-08
0, 9, 7, 1.0721309173789e-08
0, 9, 8, 1.023729812033025e-08
0, 9, 9, 1.317905518050111e-08
0, 9, 10, 9.451734506171761e-09
0, 9, 11, 2.074186333800299e-08
0, 9, 12, 1.473502209137223e-08
0, 9, 13, 2.240104457484904e-08
0, 9, 14, 4.692553901008978e-08
0, 9, 15, 1.72450107527311e-08
0, 9, 16, 7.917517308442257e-09
0, 9, 17, 5.229100263903774e-09
0, 9, 18, 2.981676061608596e-08
0, 9, 19, 3.281199312255012e-08
0, 9, 20, 1.661684834175503e-08
0, 9, 21, 2.032365920001666e-08
0, 9, 22, 1.20155032590219e-08
0, 9, 23, 1.52507606543395e-08
0, 9, 24, 8.702044640429563e-10
0, 9, 25, 1.116138470536043e-08
0, 9, 26, 1.783391212484275e-08
0, 9, 27, 4.129852015921642e-08
0, 9, 28, 2.374832241969216e-08
0, 9, 29, 7.034247850867814e-09
0, 9, 30, 1.52849484180706e-08
0, 9, 31, 7.561409276490849e-09
0, 9, 32, 1.56224722047682e-08
0, 9, 33, 1.215126488318674e-08
0, 9, 34, 1.44367344745433e-08
0, 9, 35, 5.716963791257967e-09
0, 9, 36, 1.074239808218636e-08
0, 9, 37, 1.342950284310973e-08
0, 9, 38, 3.250150726330503e-08
0, 9, 39, 4.186867741395872e-09
0, 9, 40, 4.544744580670113e-09
0, 9, 41, 2.675198196300244e-08
0, 9, 42, 9.437624903796404e-09
0, 9, 43, 3.038770346464048e-09
0, 9, 44, 3.96754940013011e-09
0, 9, 45, 1.268300042767123e-08
0, 9, 46, 7.816025160423123e-09
0, 9, 47, 9.549333546132743e-10
0, 9, 48, 6.377360861620218e-09
0, 9, 49, 1.90658955290246e-08
0, 10, 0, 5.773979516732197e-09
0, 10, 1, 5.633318256315079e-09
0, 10, 2, 2.461343662218951e-08
0, 10, 3, 8.356531466802153e-09
0, 10, 4, 2.439153057309795e-08
0, 10, 5, 1.288670414822946e-08
0, 10, 6, 2.225762862906322e-08
0, 10, 7, 4.663800901028026e-09
0, 10, 8, 5.256385549046172e-09
0, 10, 9, 3.632842293654903e-08
0, 10, 10, 1.358784906813071e-08
0, 10, 11, 5.330301533490456e-09
0, 10, 12, 4.71627048526102e-09
0, 10, 13, 1.478082278794091e-08
0, 10, 14, 2.576047997138176e-08
0, 10, 15, 2.884540251102408e-08
0, 10, 16, 1.740500010782853e-08
0, 10, 17, 5.341385111989894e-09
0, 10, 18, 6.971453192505805e-09
0, 10, 19, 4.378288309681011e-08
0, 10, 20, 8.668525453003895e-09
0, 10, 21, 1.445636588215393e-08
0, 10, 22, 7.713991223567973e-09
0, 10, 23, 1.76976495680492e-08
0, 10, 24, 1.740580302111994e-08
0, 10, 25, 2.545966459877036e-08
0, 10, 26, 1.942357386042204e-08
0, 10, 27, 1.730496812513138e-08
0, 10, 28, 2.150761879704532e-08
0, 10, 29, 1.80203088007147e-08
0, 10, 30, 1.296322249544346e-08
0, 10, 31, 1.165263885383183e-08
0, 10, 32, 9.27888255120024e-09
0, 10, 33, 2.069775906221594e-09
0, 10, 34, 7.452159778154055e-09
0, 10, 35, 2.450994429636921e-08
0, 10, 36, 1.244928959920344e-08
0, 10, 37, 2.353453965042718e-08
0, 10, 38, 8.677736751394605e-09
0, 10, 39, 2.049641523171886e-08
0, 10, 40, 1.812063210593351e-08
0, 10, 41, 1.089301004952858e-08
0, 10, 42, 1.428734375252816e-08
0, 10, 43, 5.973541217230149e-09
0, 10, 44, 1.573485164385602e-08
0, 10, 45, 1.323761900096088e-08
0, 10, 46, 7.814492164470721e-09
0, 10, 47, 1.821789830103171e-08
0, 10, 48, 5.842163974811854e-10
0, 10, 49, 1.519855707954321e-08
0, 11, 0, 1.876899524688724e-08
0, 11, 1, 1.355646261913535e-08
0, 11, 2, 1.17770806440376e-08
0, 11, 3, 5.835957939126502e-09
0, 11, 4, 3.026212391787908e-09
0, 11, 5, 3.138709914196625e-08
0, 11, 6, 1.881718425522649e-08
0, 11, 7, 3.743328846894656e-08
0, 11, 8, 6.390236340081401e-09
0, 11, 9, 2.364254569897639e-08
0, 11, 10, 2.628333106713399e-08
0, 11, 11, 3.922023594782331e-09
0, 11, 12, 2.714308955376055e-08
0, 11, 13, 3.242270452119556e-08
0, 11, 14, 2.900901030500336e-08
0, 11, 15, 1.524552217802011e-08
0, 11, 16, 2.987352587524583e-08
0, 11, 17, 4.26841362255459e-09
0, 11, 18, 2.430492251903615e-08
0, 11, 19, 1.085837908476606e-08
0, 11, 20, 3.1766585806281e-08
0, 11, 21, 1.69405343086737e-08
0, 11, 22, 2.763866646660063e-08
0, 11, 23, 1.230679291808201e-08
0, 11, 24, 2.740837556913789e-09
0, 11, 25, 1.251027814674899e-08
0, 11, 26, 1.541309124775125e-08
0, 11, 27, 5.665325097936602e-09
0, 11, 28, 1.274426431052689e-08
0, 11, 29, 4.975888590053046e-09
0, 11, 30, 8.373445936626922e-09
0, 11, 31, 2.447629654511729e-09
0, 11, 32, 1.309213626399242e-08
0, 11, 33, 8.825010056057181e-09
0, 11, 34, 1.054075937645393e-08
0, 11, 35, 2.852105218664747e-08
0, 11, 36, 3.901868694811128e-08
0, 11, 37, 4.965441391391323e-09
0, 11, 38, 9.417531643407528e-09
0, 11, 39, 6.357053106142985e-09
0, 11, 40, 6.094845517168324e-09
0, 11, 41, 1.839849383955539e-09
0, 11, 42, 2.588666703218223e-08
0, 11, 43, 3.238832846363948e-08
0, 11, 44, 6.476647218534026e-09
0, 11, 45, 9.73817382288189e-09
0, 11, 46, 2.779277785691647e-08
0, 11, 47, 2.432245516104103e-08
0, 11, 48, 1.932138449234344e-09
0, 11, 49, 1.092675461222825e-08
0, 12, 0, 2.35427641825936e-08
0, 12, 1, 2.994965697666885e-08
0, 12, 2, 1.123964388227705e-08
0, 12, 3, 2.607530902309918e-08
0, 12, 4, 9.752761265247045e-09
0, 12, 5, 1.024816853600896e-08
0, 12, 6, 1.306819008561888e-08
0, 12, 7, 3.48298350161258e-08
0, 12, 8, 1.117582559828634e-08
0, 12, 9, 8.042638555139092e-09
0, 12, 10, 1.436862095971492e-08
0, 12, 11, 2.747012928239201e-08
0, 12, 12, 1.198576704553034e-08
0, 12, 13, 1.684587047634523e-08
0, 12, 14, 1.628102630490957e-08
0, 12, 15, 1.300172502993746e-08
0, 12, 16, 7.392134460104671e-09
0, 12, 17, 1.324277487668724e-08
0, 12, 18, 1.23671251017754e-08
0, 12, 19, 1.264541804602004e-08
0, 12, 20, 1.898453660942323e-08
0, 12, 21, 1.255119475018773e-08
0, 12, 22, 2.428804890541869e-08
0, 12, 23, 2.940836374420996e-08
0, 12, 24, 2.573553814499974e-08
0, 12, 25, 1.500444568591774e-08
0, 12, 26, 2.575052526765376e-08
0, 12, 27, 4.454595803338179e-09
0, 12, 28, 1.241915636995827e-08
0, 12, 29, 7.498362819546855e-09
0, 12, 30, 5.115888868090224e-08
0, 12, 31, 1.617738121240109e-08
0, 12, 32, 1.511684999400131e-08
0, 12, 33, 1.555688200483019e-08
0, 12, 34, 2.110506081010044e-08
0, 12, 35, 1.05445314702024e-08
0, 12, 36, 1.330333709859133e-08
0, 12, 37, 1.046147879435466e-08
0, 12, 38, 5.153710347371998e-09
0, 12, 39, 3.49728850324027e-08
0, 12, 40, 8.145129015701968e-09
0, 12, 41, 4.934607833462223e-09
0, 12, 42, 2.019347533632754e-08
0, 12, 43, 5.966329208462184e-09
0, 12, 44, 1.696898621617038e-08
0, 12, 45, 4.390357588590632e-08
0, 12, 46, 1.022725015786818e-08
0, 12, 47, 6.867335144988829e-09
0, 12, 48, 1.986732200975894e-08
0, 12, 49, 3.309578033849903e-08
0, 13, 0, 1.642575853111339e-08
0, 13, 1, 1.5905154526763e-08
0, 13, 2, 6.162022003763923e-09
0, 13, 3, 4.515628759804713e-08
0, 13, 4, 1.593194376425799e-08
0, 13, 5, 1.204278365918299e-08
0, 13, 6, 5.598263630446354e-09
0, 13, 7, 1.200584076599398e-08
0, 13, 8, 7.687710024129046e-09
0, 13, 9, 6.041558009428627e-08
0, 13, 10, 1.184085895999942e-08
0, 13, 11, 8.325606870585034e-09
0, 13, 12, 7.36426741809737e-09
0, 13, 13, 1.293182450012864e-08
0, 13, 14, 2.416047983899716e-08
0, 13, 15, 1.18076259880695e-08
0, 13, 16, 1.0930999216896e-08
0, 13, 17, 3.164271689115594e-08
0, 13, 18, 2.16275974906921e-08
0, 13, 19, 1.943409166926813e-08
0, 13, 20, 2.910651097920436e-08
0, 13, 21, 1.093423751541422e-08
0, 13, 22, 3.024348060876036e-08
0, 13, 23, 2.097827511704509e-08
0, 13, 24, 1.174198160924789e-08
0, 13, 25, 1.140822902812033e-08
0, 13, 26, 2.100823692785525e-08
0, 13, 27, 1.901254620406689e-08
0, 13, 28, 2.054060210809894e-08
0, 13, 29, 1.215737110982218e-08
0, 13, 30, 1.176217345744135e-08
0, 13, 31, 1.479195610443185e-08
0, 13, 32, 1.941470806343659e-08
0, 13, 33, 4.45989645214695e-09
0, 13, 34, 2.699137979789157e-08
0, 13, 35, 1.441885544295474e-08
0, 13, 36, 1.086160228425115e-08
0, 13, 37, 7.212624719699079e-09
0, 13, 38, 1.00808197345259e-08
0, 13, 39, 1.815207539834773e-08
0, 13, 40, 2.15502229394815e-08
0, 13, 41, 1.945864447350232e-08
0, 13, 42, 8.749652558037724e-09
0, 13, 43, 2.728250292349799e-09
0, 13, 44, 1.759732448647355e-08
0, 13, 45, 5.643529643606371e-09
0, 13, 46, 1.308790764653622e-08
0, 13, 47, 1.303883667702621e-08
0, 13, 48, 1.629524426505213e-08
0, 13, 49, 5.503898226066894e-09
0, 14, 0, 1.415809691707182e-08
0, 14, 1, 1.008339634012145e-08
0, 14, 2, 1.769396007489377e-08
0, 14, 3, 1.278816341709899e-08
0, 14, 4, 1.689051742914671e-08
0, 14, 5, 1.310421016142982e-08
0, 14, 6, 1.568936092155582e-08
0, 14, 7, 1.042164132769585e-08
0, 14, 8, 2.355001349485519e-08
0, 14, 9, 2.815544952738946e-08
0, 14, 10, 7.331695250911707e-09
0, 14, 11, 2.407247379210276e-08
0, 14, 12, 1.668687232836419e-08
0, 14, 13, 1.104047342437298e-08
0, 14, 14, 1.797473814235673e-08
0, 14, 15, 1.685896400260845e-08
0, 14, 16, 1.026912244128653e-08
0, 14, 17, 1.463870358264785e-08
0, 14, 18, 1.23582930555699e-08
0, 14, 19, 7.98151411629533e-09
0, 14, 20, 1.326890863850849e-08
0, 14, 21, 1.149103923125949e-08
0, 14, 22, 9.260596733895454e-09
0, 14, 23, 1.755231693323367e-08
0, 14, 24, 1.383705861002227e-08
0, 14, 25, 1.704893293208443e-08
0, 14, 26, 1.909494251606247e-08
0, 14, 27, 1.313909248068512e-08
0, 14, 28, 8.142774454711343e-09
0, 14, 29, 1.161174179031832e-08
0, 14, 30, 1.343713496027021e-08
0, 14, 31, 1.302855956453186e-08
0, 14, 32, 3.703261342025144e-08
0, 14, 33, 2.826518397114341e-08
0, 14, 34, 1.520407266752954e-08
0, 14, 35, 1.461251741829983e-08
0, 14, 36, 2.452867420288385e-08
0, 14, 37, 1.461389143031511e-08
0, 14, 38, 1.067892352324407e-08
0, 14, 39, 1.224636658747613e-08
0, 14, 40, 2.813267485635151e-08
0, 14, 41, 2.705582646811422e-09
0, 14, 42, 1.999606702440815e-08
0, 14, 43, 8.07404187952443e-09
0, 14, 44, 6.857324930109598e-09
0, 14, 45, 1.411272787521511e-08
0, 14, 46, 1.123849457940196e-08
0, 14, 47, 7.725976303163407e-09
0, 14, 48, 9.54770040806352e-09
0, 14, 49, 5.743051811890609e-09
0, 15, 0, 6.431339460988283e-09
0, 15, 1, 2.011875643859184e-08
0, 15, 2, 3.899751632729931e-09
0, 15, 3, 1.600468557683143e-08
0, 15, 4, 2.022279765867552e-08
0, 15, 5, 2.613541916218765e-08
0, 15, 6, 1.871307198086924e-08
0, 15, 7, 1.601345367419071e-08
0, 15, 8, 2.104631491306463e-08
0, 15, 9, 3.361721923056393e-08
0, 15, 10, 2.305962176762932e-08
0, 15, 11, 9.237361098257679e-09
0, 15, 12, 1.64881654995952e-08
0, 15, 13, 1.738541044460362e-08
0, 15, 14, 2.073941196556461e-08
0, 15, 15, 4.118312801892898e-08
0, 15, 16, 2.304230584115885e-08
0, 15, 17, 1.86327646645168e-08
0, 15, 18, 1.814336592076415e-08
0, 15, 19, 2.268480869815903e-08
0, 15, 20, 7.913172339613084e-09
0, 15, 21, 2.323487180433403e-08
0, 15, 22, 2.619314898311131e-08
0, 15, 23, 2.69867825863912e-08
0, 15, 24, 9.073338524956398e-09
0, 15, 25, 2.616948613365366e-08
0, 15, 26, 1.281912531680973e-08
0, 15, 27, 1.174923625058e-08
0, 15, 28, 3.188154451549963e-08
0, 15, 29, 1.569675056600772e-08
0, 15, 30, 4.675383191710125e-09
0, 15, 31, 4.032511213836187e-08
0, 15, 32, 1.706311714144704e-08
0, 15, 33, 1.025002926979823e-08
0, 15, 34, 2.902392814974064e-08
0, 15, 35, 1.419835893301524e-08
0, 15, 36, 1.459067267006731e-08
0, 15, 37, 1.319851072878464e-08
0, 15, 38, 8.781377403010993e-09
0, 15, 39, 8.437945453465545e-09
0, 15, 40, 2.932859999305037e-08
0, 15, 41, 1.316551667684962e-08
0, 15, 42, 2.533561449524768e-08
0, 15, 43, 3.71575872293306e-08
0, 15, 44, 1.068541344295681e-08
0, 15, 45, 2.14008792909226e-08
0, 15, 46, 2.350215666524491e-08
0, 15, 47, 8.837645282255835e-09
0, 15, 48, 2.886510941380038e-08
0, 15, 49, 5.447633455446521e-09
0, 16, 0, 1.168633900761051e-08
0, 16, 1, 2.311301550150802e-08
0, 16, 2, 1.199919097416569e-08
0, 16, 3, 2.500801699056865e-08
0, 16, 4, 3.969079231946893e-10
0, 16, 5, 2.033368140530456e-08
0, 16, 6, 2.245887209539887e-08
0, 16, 7, 1.83371700046564e-08
0, 16, 8, 1.517982362031489e-08
0, 16, 9, 1.651299008642582e-08
0, 16, 10, 2.168224177978573e-08
0, 16, 11, 2.559733580653756e-08
0, 16, 12, 1.937907967430874e-08
0, 16, 13, 1.904539637109792e-08
0, 16, 14, 3.485824962012884e-08
0, 16, 15, 3.552340288592859e-08
0, 16, 16, 1.428858631413732e-08
0, 16, 17, 1.712807318199339e-08
0, 16, 18, 2.058137660299053e-08
0, 16, 19, 1.84837727346121e-08
0, 16, 20, 1.427123130781638e-08
0, 16, 21, 3.010220694932286e-08
0, 16, 22, 2.696416423475512e-08
0, 16, 23, 7.979807925551086e-09
0, 16, 24, 1.167869889684425e-08
0, 16, 25, 8.093229197925211e-09
0, 16, 26, 2.36773605166718e-08
0, 16, 27, 2.114339281433786e-08
0, 16, 28, 1.604895238926929e-08
0, 16, 29, 2.578548574660999e-08
0, 16, 30, 3.195328801552932e-08
0, 16, 31, 1.198615962039185e-08
0, 16, 32, 2.068498972107591e-08
0, 16, 33, 5.636999311775526e-09
0, 16, 34, 1.120929127296222e-08
0, 16, 35, 2.746899241401479e-08
0, 16, 36, 1.346583822225966e-08
0, 16, 37, 3.096975786931466e-09
0, 16, 38, 1.837246621505528e-08
0, 16, 39, 3.782537305596634e-08
0, 16, 40, 3.429171613333892e-08
0, 16, 41, 5.15177855930915e-09
0, 16, 42, 9.381515120310269e-09
0, 16, 43, 1.782001035621761e-08
0, 16, 44, 1.771515556470149e-08
0, 16, 45, 1.241124714113084e-08
0, 16, 46, 9.210234352963198e-09
0, 16, 47, 6.506595706667895e-09
0, 16, 48, 3.440176143953977e-08
0, 16, 49, 1.186566489508323e-08
0, 17, 0, 1.07757811562692e-08
0, 17, 1, 5.579056772120339e-09
0, 17, 2, 3.101661505411357e-08
0, 17, 3, 1.189241061183566e-08
0, 17, 4, 1.866401611039237e-08
0, 17, 5, 2.000084009523562e-08
0, 17, 6, 1.346958544701238e-08
0, 17, 7, 1.943317329278216e-08
0, 17, 8, 3.534345438538367e-08
0, 17, 9, 1.314802933194414e-08
0, 17, 10, 2.043558389175359e-08
0, 17, 11, 1.389301385046338e-08
0, 17, 12, 2.2857644665919e-08
0, 17, 13, 2.019011979825791e-08
0, 17, 14, 1.301157626087956e-09
0, 17, 15, 1.699373264330006e-08
0, 17, 16, 1.509081037909255e-08
0, 17, 17, 1.850993491814279e-08
0, 17, 18, 2.558351397397018e-08
0, 17, 19, 3.194828224195589e-08
0, 17, 20, 3.318022478993043e-08
0, 17, 21, 2.144150990091021e-08
0, 17, 22, 2.581781366473024e-08
0, 17, 23, 2.158688872100356e-08
0, 17, 24, 3.601203601988345e-08
0, 17, 25, 1.290618634186558e-08
0, 17, 26, 1.011615502477525e-08
0, 17, 27, 1.456977916092228e-08
0, 17, 28, 1.54340487057425e-08
0, 17, 29, 1.846473196565057e-08
0, 17, 30, 6.485323389426867e-09
0, 17, 31, 1.401695648439727e-08
0, 17, 32, 7.854482397817719e-09
0, 17, 33, 2.388016895338296e-08
0, 17, 34, 1.93707236917362e-08
0, 17, 35, 2.888793027011616e-08
0, 17, 36, 2.626979522801776e-08
0, 17, 37, 2.062321158291525e-08
0, 17, 38, 9.367952635841448e-09
0, 17, 39, 1.51765462419462e-08
0, 17, 40, 2.09906065862242e-08
0, 17, 41, 2.592647696531003e-08
0, 17, 42, 1.356781265116069e-08
0, 17, 43, 2.067359616830799e-08
0, 17, 44, 3.329208198010747e-08
0, 17, 45, 1.432379814758633e-08
0, 17, 46, 2.797268550125409e-08
0, 17, 47, 4.30845759069598e-09
0, 17, 48, 1.06213020600876e-08
0, 17, 49, 9.034549108832834e-09
0, 18, 0, 1.462273324648322e-08
0, 18, 1, 1.833628004987986e-08
0, 18, 2, 2.687601075024304e-08
0, 18, 3, 2.5855953822429e-08
0, 18, 4, 3.507437895677867e-08
0, 18, 5, 8.625026026720661e-09
0, 18, 6, 1.870026622441401e-08
0, 18, 7, 1.678711036845471e-08
0, 18, 8, 2.921713715409169e-08
0, 18, 9, 2.108172481030124e-08
0, 18, 10, 2.638041607383457e-08
0, 18, 11, 2.733442272528919e-08
0, 18, 12, 2.806289423062935e-08
0, 18, 13, 2.205430682522547e-08
0, 18, 14, 9.305944459470084e-09
0, 18, 15, 2.303559654137644e-08
0, 18, 16, 1.225300483298497e-08
0, 18, 17, 2.018724920560544e-08
0, 18, 18, 2.025420542395295e-08
0, 18, 19, 1.497120472038205e-08
0, 18, 20, 2.926455167084896e-08
0, 18, 21, 1.668222360251548e-08
0, 18, 22, 1.599161691956397e-08
0, 18, 23, 2.925280107035633e-08
0, 18, 24, 2.214274630318869e-08
0, 18, 25, 2.346779126582987e-08
