# TOPAS Version: 3.7
# Parameter File: TestingDose4.txt
# Results for scorer TestingDose4Fluence
# Scored in component: Phantom
# X in 50 bins of 0.1 cm
# Y in 50 bins of 0.1 cm
# Z in 50 bins of 0.1 cm
# Fluence ( /mm2 ) : Sum   
0, 0, 0, 198.0161590576172
0, 0, 1, 240.0987548828125
0, 0, 2, 270.212158203125
0, 0, 3, 249.2860260009766
0, 0, 4, 243.7598266601562
0, 0, 5, 242.8817901611328
0, 0, 6, 259.4116821289062
0, 0, 7, 248.5091400146484
0, 0, 8, 260.2056579589844
0, 0, 9, 252.7501373291016
0, 0, 10, 273.4861450195312
0, 0, 11, 283.66162109375
0, 0, 12, 260.2217407226562
0, 0, 13, 272.7438354492188
0, 0, 14, 258.9912414550781
0, 0, 15, 303.6224670410156
0, 0, 16, 278.6195983886719
0, 0, 17, 300.1022033691406
0, 0, 18, 272.9903564453125
0, 0, 19, 256.4724731445312
0, 0, 20, 291.919921875
0, 0, 21, 267.4375610351562
0, 0, 22, 299.2111206054688
0, 0, 23, 298.3109741210938
0, 0, 24, 308.6642456054688
0, 0, 25, 254.7701110839844
0, 0, 26, 289.7748107910156
0, 0, 27, 277.322509765625
0, 0, 28, 315.1006774902344
0, 0, 29, 268.1883239746094
0, 0, 30, 295.3511962890625
0, 0, 31, 265.6021118164062
0, 0, 32, 265.3302001953125
0, 0, 33, 255.6501159667969
0, 0, 34, 256.7291259765625
0, 0, 35, 257.1476745605469
0, 0, 36, 266.6871337890625
0, 0, 37, 242.2571563720703
0, 0, 38, 252.8185729980469
0, 0, 39, 256.9112243652344
0, 0, 40, 229.6187744140625
0, 0, 41, 213.5986022949219
0, 0, 42, 220.9332885742188
0, 0, 43, 230.5174560546875
0, 0, 44, 219.6868286132812
0, 0, 45, 222.7832641601562
0, 0, 46, 208.1945190429688
0, 0, 47, 214.8173522949219
0, 0, 48, 195.2378845214844
0, 0, 49, 200.6287689208984
0, 1, 0, 230.1987609863281
0, 1, 1, 221.2620391845703
0, 1, 2, 232.7258148193359
0, 1, 3, 229.508056640625
0, 1, 4, 266.1082458496094
0, 1, 5, 284.4568176269531
0, 1, 6, 277.7010192871094
0, 1, 7, 280.8453369140625
0, 1, 8, 281.3230285644531
0, 1, 9, 259.2969055175781
0, 1, 10, 277.7962646484375
0, 1, 11, 293.6034851074219
0, 1, 12, 301.2498168945312
0, 1, 13, 278.4436340332031
0, 1, 14, 277.1239929199219
0, 1, 15, 306.8782653808594
0, 1, 16, 290.5165710449219
0, 1, 17, 296.7601013183594
0, 1, 18, 300.2939147949219
0, 1, 19, 270.5634460449219
0, 1, 20, 276.35888671875
0, 1, 21, 290.0712890625
0, 1, 22, 283.0294494628906
0, 1, 23, 276.4645080566406
0, 1, 24, 309.3626403808594
0, 1, 25, 315.1206665039062
0, 1, 26, 283.8868103027344
0, 1, 27, 290.3323669433594
0, 1, 28, 300.4411315917969
0, 1, 29, 280.2691345214844
0, 1, 30, 285.2479553222656
0, 1, 31, 310.4169311523438
0, 1, 32, 275.7057189941406
0, 1, 33, 261.8157043457031
0, 1, 34, 288.3944091796875
0, 1, 35, 293.771240234375
0, 1, 36, 245.1523590087891
0, 1, 37, 272.5475158691406
0, 1, 38, 262.1201477050781
0, 1, 39, 245.2216796875
0, 1, 40, 271.9439697265625
0, 1, 41, 257.3525085449219
0, 1, 42, 273.6498107910156
0, 1, 43, 228.9254608154297
0, 1, 44, 208.6904907226562
0, 1, 45, 258.4457702636719
0, 1, 46, 233.8396759033203
0, 1, 47, 224.0971527099609
0, 1, 48, 209.0090484619141
0, 1, 49, 203.5070953369141
0, 2, 0, 229.3077850341797
0, 2, 1, 233.7927398681641
0, 2, 2, 251.4409484863281
0, 2, 3, 238.8221282958984
0, 2, 4, 256.6238098144531
0, 2, 5, 279.0713806152344
0, 2, 6, 263.8512268066406
0, 2, 7, 279.4650573730469
0, 2, 8, 279.7967224121094
0, 2, 9, 284.2357177734375
0, 2, 10, 280.6961975097656
0, 2, 11, 316.9956359863281
0, 2, 12, 305.9943542480469
0, 2, 13, 281.5205383300781
0, 2, 14, 303.8729553222656
0, 2, 15, 303.7097778320312
0, 2, 16, 309.33251953125
0, 2, 17, 329.2819213867188
0, 2, 18, 300.9848327636719
0, 2, 19, 299.8077697753906
0, 2, 20, 340.6742553710938
0, 2, 21, 320.7065124511719
0, 2, 22, 339.1220397949219
0, 2, 23, 330.8358459472656
0, 2, 24, 305.2444763183594
0, 2, 25, 320.6632690429688
0, 2, 26, 298.6517944335938
0, 2, 27, 292.6786499023438
0, 2, 28, 335.960205078125
0, 2, 29, 321.7193908691406
0, 2, 30, 320.64013671875
0, 2, 31, 324.3711242675781
0, 2, 32, 335.1791381835938
0, 2, 33, 276.4786987304688
0, 2, 34, 296.2523193359375
0, 2, 35, 301.1624755859375
0, 2, 36, 277.32568359375
0, 2, 37, 258.2974548339844
0, 2, 38, 263.8687133789062
0, 2, 39, 256.0380859375
0, 2, 40, 277.0596923828125
0, 2, 41, 252.1772613525391
0, 2, 42, 277.6219787597656
0, 2, 43, 240.4891510009766
0, 2, 44, 225.4391632080078
0, 2, 45, 243.6198577880859
0, 2, 46, 252.9669342041016
0, 2, 47, 235.0813446044922
0, 2, 48, 211.9111633300781
0, 2, 49, 205.3088836669922
0, 3, 0, 242.9791412353516
0, 3, 1, 269.391845703125
0, 3, 2, 244.0694427490234
0, 3, 3, 281.0460815429688
0, 3, 4, 276.4739685058594
0, 3, 5, 268.5359191894531
0, 3, 6, 294.5246887207031
0, 3, 7, 289.9377136230469
0, 3, 8, 296.2681884765625
0, 3, 9, 302.60009765625
0, 3, 10, 300.2525329589844
0, 3, 11, 325.0035095214844
0, 3, 12, 318.1268005371094
0, 3, 13, 291.1753845214844
0, 3, 14, 327.8900451660156
0, 3, 15, 285.9097595214844
0, 3, 16, 288.2571716308594
0, 3, 17, 311.7132263183594
0, 3, 18, 304.5196838378906
0, 3, 19, 330.3565673828125
0, 3, 20, 355.7572326660156
0, 3, 21, 326.600830078125
0, 3, 22, 297.7478942871094
0, 3, 23, 348.5519714355469
0, 3, 24, 369.7945556640625
0, 3, 25, 328.4368591308594
0, 3, 26, 324.5007629394531
0, 3, 27, 288.6114807128906
0, 3, 28, 327.9939270019531
0, 3, 29, 336.7835388183594
0, 3, 30, 301.5882568359375
0, 3, 31, 332.1355285644531
0, 3, 32, 314.1378784179688
0, 3, 33, 290.3968811035156
0, 3, 34, 306.0677185058594
0, 3, 35, 308.6662902832031
0, 3, 36, 312.5247802734375
0, 3, 37, 290.3493957519531
0, 3, 38, 290.2882385253906
0, 3, 39, 295.8460083007812
0, 3, 40, 247.5370330810547
0, 3, 41, 266.7341003417969
0, 3, 42, 252.7935485839844
0, 3, 43, 292.4625854492188
0, 3, 44, 246.7633666992188
0, 3, 45, 234.3311157226562
0, 3, 46, 224.2496643066406
0, 3, 47, 204.7979278564453
0, 3, 48, 204.2514190673828
0, 3, 49, 211.6385192871094
0, 4, 0, 277.0645141601562
0, 4, 1, 273.0851135253906
0, 4, 2, 257.4093627929688
0, 4, 3, 268.1168212890625
0, 4, 4, 261.9639892578125
0, 4, 5, 264.9016723632812
0, 4, 6, 320.7541809082031
0, 4, 7, 309.2936706542969
0, 4, 8, 311.9017028808594
0, 4, 9, 322.7152709960938
0, 4, 10, 298.9781494140625
0, 4, 11, 323.2481384277344
0, 4, 12, 340.3102722167969
0, 4, 13, 332.554931640625
0, 4, 14, 334.6093444824219
0, 4, 15, 348.1993408203125
0, 4, 16, 379.74755859375
0, 4, 17, 330.2391052246094
0, 4, 18, 351.7813720703125
0, 4, 19, 324.5851440429688
0, 4, 20, 362.5041809082031
0, 4, 21, 336.0988464355469
0, 4, 22, 365.8932495117188
0, 4, 23, 356.5769958496094
0, 4, 24, 353.8534545898438
0, 4, 25, 380.5144653320312
0, 4, 26, 347.0349731445312
0, 4, 27, 355.5174865722656
0, 4, 28, 347.4701843261719
0, 4, 29, 326.7561340332031
0, 4, 30, 299.290283203125
0, 4, 31, 319.4242858886719
0, 4, 32, 313.5581665039062
0, 4, 33, 348.5479736328125
0, 4, 34, 299.0436706542969
0, 4, 35, 316.96875
0, 4, 36, 290.3744201660156
0, 4, 37, 336.8241882324219
0, 4, 38, 295.3087768554688
0, 4, 39, 286.6727600097656
0, 4, 40, 281.2015075683594
0, 4, 41, 267.8104858398438
0, 4, 42, 281.9821166992188
0, 4, 43, 295.77392578125
0, 4, 44, 248.3478393554688
0, 4, 45, 259.2875671386719
0, 4, 46, 244.2978820800781
0, 4, 47, 253.6396484375
0, 4, 48, 229.0110168457031
0, 4, 49, 212.135986328125
0, 5, 0, 276.2637634277344
0, 5, 1, 278.1983032226562
0, 5, 2, 274.1920776367188
0, 5, 3, 256.6993103027344
0, 5, 4, 279.0418395996094
0, 5, 5, 295.0563659667969
0, 5, 6, 278.9731140136719
0, 5, 7, 282.5229187011719
0, 5, 8, 330.5576782226562
0, 5, 9, 337.3871765136719
0, 5, 10, 331.6019287109375
0, 5, 11, 346.5762939453125
0, 5, 12, 337.2911682128906
0, 5, 13, 355.7525939941406
0, 5, 14, 331.1518249511719
0, 5, 15, 343.9442138671875
0, 5, 16, 360.3424987792969
0, 5, 17, 329.3829956054688
0, 5, 18, 374.7039184570312
0, 5, 19, 370.2550048828125
0, 5, 20, 356.4803771972656
0, 5, 21, 355.2648010253906
0, 5, 22, 373.552978515625
0, 5, 23, 378.4839477539062
0, 5, 24, 358.991455078125
0, 5, 25, 384.2839050292969
0, 5, 26, 358.8943481445312
0, 5, 27, 347.6728210449219
0, 5, 28, 336.8466491699219
0, 5, 29, 325.3667602539062
0, 5, 30, 341.3688659667969
0, 5, 31, 345.7970581054688
0, 5, 32, 334.433349609375
0, 5, 33, 332.7336120605469
0, 5, 34, 324.6266174316406
0, 5, 35, 322.9422912597656
0, 5, 36, 298.7901306152344
0, 5, 37, 317.06591796875
0, 5, 38, 323.3564453125
0, 5, 39, 298.8609924316406
0, 5, 40, 316.0862731933594
0, 5, 41, 288.0738830566406
0, 5, 42, 294.4492797851562
0, 5, 43, 276.3764038085938
0, 5, 44, 269.2671508789062
0, 5, 45, 269.6693725585938
0, 5, 46, 273.8525390625
0, 5, 47, 259.3204345703125
0, 5, 48, 237.3058929443359
0, 5, 49, 226.2732849121094
0, 6, 0, 288.2166442871094
0, 6, 1, 284.2453002929688
0, 6, 2, 319.7446899414062
0, 6, 3, 296.0683898925781
0, 6, 4, 283.4761352539062
0, 6, 5, 316.7382507324219
0, 6, 6, 328.3020935058594
0, 6, 7, 318.662353515625
0, 6, 8, 309.0871887207031
0, 6, 9, 294.8523559570312
0, 6, 10, 332.003173828125
0, 6, 11, 358.0743103027344
0, 6, 12, 354.0748901367188
0, 6, 13, 335.9667053222656
0, 6, 14, 393.9231872558594
0, 6, 15, 362.06982421875
0, 6, 16, 349.7607727050781
0, 6, 17, 339.0480651855469
0, 6, 18, 357.9283142089844
0, 6, 19, 342.0004577636719
0, 6, 20, 376.5257568359375
0, 6, 21, 361.5988464355469
0, 6, 22, 353.4583435058594
0, 6, 23, 373.0707092285156
0, 6, 24, 382.1764221191406
0, 6, 25, 359.2523803710938
0, 6, 26, 398.9918212890625
0, 6, 27, 372.0581665039062
0, 6, 28, 372.0973510742188
0, 6, 29, 380.690673828125
0, 6, 30, 351.6377868652344
0, 6, 31, 371.3181457519531
0, 6, 32, 366.9258422851562
0, 6, 33, 330.8920288085938
0, 6, 34, 354.4117126464844
0, 6, 35, 315.7147521972656
0, 6, 36, 341.7933044433594
0, 6, 37, 348.5927734375
0, 6, 38, 304.6792297363281
0, 6, 39, 345.9449768066406
0, 6, 40, 347.8610229492188
0, 6, 41, 308.8348083496094
0, 6, 42, 294.4316711425781
0, 6, 43, 274.7941589355469
0, 6, 44, 267.7570190429688
0, 6, 45, 275.1623229980469
0, 6, 46, 257.0621032714844
0, 6, 47, 289.1793823242188
0, 6, 48, 251.0386962890625
0, 6, 49, 241.8602905273438
0, 7, 0, 270.0812683105469
0, 7, 1, 286.5531005859375
0, 7, 2, 309.5784606933594
0, 7, 3, 313.4673767089844
0, 7, 4, 302.5087890625
0, 7, 5, 322.4246215820312
0, 7, 6, 310.7369995117188
0, 7, 7, 331.1690368652344
0, 7, 8, 349.1761779785156
0, 7, 9, 346.8858947753906
0, 7, 10, 374.7277526855469
0, 7, 11, 385.8376770019531
0, 7, 12, 375.2522888183594
0, 7, 13, 359.4691162109375
0, 7, 14, 376.0702209472656
0, 7, 15, 383.3162841796875
0, 7, 16, 363.6900329589844
0, 7, 17, 364.3621520996094
0, 7, 18, 372.4741821289062
0, 7, 19, 384.2665100097656
0, 7, 20, 420.3607177734375
0, 7, 21, 403.1537780761719
0, 7, 22, 359.3545227050781
0, 7, 23, 374.3119812011719
0, 7, 24, 406.9821166992188
0, 7, 25, 390.6391296386719
0, 7, 26, 365.037353515625
0, 7, 27, 408.0119018554688
0, 7, 28, 344.8441162109375
0, 7, 29, 371.7627563476562
0, 7, 30, 355.0487365722656
0, 7, 31, 344.5853271484375
0, 7, 32, 369.8999633789062
0, 7, 33, 367.313232421875
0, 7, 34, 343.7476196289062
0, 7, 35, 326.8755798339844
0, 7, 36, 380.0202026367188
0, 7, 37, 352.8071899414062
0, 7, 38, 349.1129455566406
0, 7, 39, 341.6085815429688
0, 7, 40, 327.9374694824219
0, 7, 41, 312.0115051269531
0, 7, 42, 308.5889892578125
0, 7, 43, 282.4219970703125
0, 7, 44, 307.2991943359375
0, 7, 45, 296.272216796875
0, 7, 46, 252.7489166259766
0, 7, 47, 262.1902770996094
0, 7, 48, 291.2773132324219
0, 7, 49, 247.6122283935547
0, 8, 0, 286.9534912109375
0, 8, 1, 305.2977905273438
0, 8, 2, 301.9853820800781
0, 8, 3, 313.9960632324219
0, 8, 4, 316.8414001464844
0, 8, 5, 345.7296447753906
0, 8, 6, 364.6414794921875
0, 8, 7, 370.6803283691406
0, 8, 8, 368.2590637207031
0, 8, 9, 353.5807495117188
0, 8, 10, 357.3796081542969
0, 8, 11, 353.7182312011719
0, 8, 12, 386.8255615234375
0, 8, 13, 402.41455078125
0, 8, 14, 383.9446411132812
0, 8, 15, 407.761474609375
0, 8, 16, 354.6860961914062
0, 8, 17, 419.6648864746094
0, 8, 18, 389.5351867675781
0, 8, 19, 398.8547058105469
0, 8, 20, 409.0821838378906
0, 8, 21, 416.3726196289062
0, 8, 22, 391.5988159179688
0, 8, 23, 381.1170654296875
0, 8, 24, 408.6709899902344
0, 8, 25, 446.446044921875
0, 8, 26, 411.3608093261719
0, 8, 27, 385.4134521484375
0, 8, 28, 384.6553039550781
0, 8, 29, 376.2685241699219
0, 8, 30, 373.2250671386719
0, 8, 31, 368.4535217285156
0, 8, 32, 368.7946472167969
0, 8, 33, 367.3753967285156
0, 8, 34, 351.48583984375
0, 8, 35, 363.8244323730469
0, 8, 36, 361.2728271484375
0, 8, 37, 338.2973937988281
0, 8, 38, 328.7176208496094
0, 8, 39, 335.0649108886719
0, 8, 40, 344.4609069824219
0, 8, 41, 313.2068786621094
0, 8, 42, 326.8945007324219
0, 8, 43, 366.1283874511719
0, 8, 44, 319.1998596191406
0, 8, 45, 297.9386596679688
0, 8, 46, 294.775634765625
0, 8, 47, 292.1598815917969
0, 8, 48, 271.7957458496094
0, 8, 49, 272.2472839355469
0, 9, 0, 273.8387756347656
0, 9, 1, 322.486083984375
0, 9, 2, 314.5431213378906
0, 9, 3, 328.8062438964844
0, 9, 4, 368.4556274414062
0, 9, 5, 339.9208374023438
0, 9, 6, 349.7116088867188
0, 9, 7, 391.3252868652344
0, 9, 8, 385.0564575195312
0, 9, 9, 338.2938537597656
0, 9, 10, 380.370361328125
0, 9, 11, 365.2410888671875
0, 9, 12, 386.0332641601562
0, 9, 13, 389.5969543457031
0, 9, 14, 388.123779296875
0, 9, 15, 427.3734130859375
0, 9, 16, 391.7643432617188
0, 9, 17, 410.8403015136719
0, 9, 18, 456.6304321289062
0, 9, 19, 420.9828796386719
0, 9, 20, 418.16650390625
0, 9, 21, 406.4714660644531
0, 9, 22, 414.236328125
0, 9, 23, 397.0711364746094
0, 9, 24, 374.66748046875
0, 9, 25, 444.5827026367188
0, 9, 26, 435.7847290039062
0, 9, 27, 429.29931640625
0, 9, 28, 408.4572143554688
0, 9, 29, 391.2423400878906
0, 9, 30, 387.8584289550781
0, 9, 31, 387.5447387695312
0, 9, 32, 393.1015930175781
0, 9, 33, 337.0234985351562
0, 9, 34, 370.8069763183594
0, 9, 35, 369.8603210449219
0, 9, 36, 400.5598754882812
0, 9, 37, 359.8987426757812
0, 9, 38, 376.0581665039062
0, 9, 39, 337.0068664550781
0, 9, 40, 344.7883911132812
0, 9, 41, 345.9534606933594
0, 9, 42, 350.0657348632812
0, 9, 43, 324.4857482910156
0, 9, 44, 337.8957214355469
0, 9, 45, 330.2579040527344
0, 9, 46, 282.910888671875
0, 9, 47, 301.4424438476562
0, 9, 48, 289.952880859375
0, 9, 49, 305.2104187011719
0, 10, 0, 306.8568725585938
0, 10, 1, 337.3351440429688
0, 10, 2, 324.2127990722656
0, 10, 3, 341.9052734375
0, 10, 4, 362.3545532226562
0, 10, 5, 371.680419921875
0, 10, 6, 356.5109252929688
0, 10, 7, 389.4863891601562
0, 10, 8, 391.2039184570312
0, 10, 9, 369.5078735351562
0, 10, 10, 387.5225219726562
0, 10, 11, 383.9988098144531
0, 10, 12, 421.9044189453125
0, 10, 13, 409.3449401855469
0, 10, 14, 406.76708984375
0, 10, 15, 408.9583740234375
0, 10, 16, 384.4375305175781
0, 10, 17, 404.8405151367188
0, 10, 18, 427.6969299316406
0, 10, 19, 433.5370483398438
0, 10, 20, 445.7343139648438
0, 10, 21, 447.9605102539062
0, 10, 22, 424.2110290527344
0, 10, 23, 408.4545593261719
0, 10, 24, 456.5448913574219
0, 10, 25, 441.3795166015625
0, 10, 26, 475.2575073242188
0, 10, 27, 402.2744445800781
0, 10, 28, 426.9801330566406
0, 10, 29, 437.85302734375
0, 10, 30, 436.7650756835938
0, 10, 31, 382.5802917480469
0, 10, 32, 413.4328002929688
0, 10, 33, 402.8994445800781
0, 10, 34, 447.9282531738281
0, 10, 35, 402.0359191894531
0, 10, 36, 380.2454833984375
0, 10, 37, 388.4876098632812
0, 10, 38, 403.1532592773438
0, 10, 39, 373.6080627441406
0, 10, 40, 373.864501953125
0, 10, 41, 349.6003112792969
0, 10, 42, 352.607666015625
0, 10, 43, 355.8016967773438
0, 10, 44, 336.8665161132812
0, 10, 45, 334.7514038085938
0, 10, 46, 311.7567138671875
0, 10, 47, 317.66943359375
0, 10, 48, 306.1034851074219
0, 10, 49, 301.9698791503906
0, 11, 0, 291.1414184570312
0, 11, 1, 304.7118530273438
0, 11, 2, 326.3544921875
0, 11, 3, 363.1859130859375
0, 11, 4, 360.379638671875
0, 11, 5, 347.9101867675781
0, 11, 6, 397.1949462890625
0, 11, 7, 385.8272094726562
0, 11, 8, 384.1060791015625
0, 11, 9, 374.7793579101562
0, 11, 10, 407.7101135253906
0, 11, 11, 407.5982666015625
0, 11, 12, 411.9352722167969
0, 11, 13, 416.8725280761719
0, 11, 14, 421.5105285644531
0, 11, 15, 398.9356384277344
0, 11, 16, 410.784423828125
0, 11, 17, 430.0253601074219
0, 11, 18, 424.5542602539062
0, 11, 19, 412.01513671875
0, 11, 20, 450.4085083007812
0, 11, 21, 437.4846496582031
0, 11, 22, 489.19580078125
0, 11, 23, 460.966064453125
0, 11, 24, 438.6870422363281
0, 11, 25, 439.8770446777344
0, 11, 26, 431.0397338867188
0, 11, 27, 434.4682006835938
0, 11, 28, 427.6253356933594
0, 11, 29, 455.1308288574219
0, 11, 30, 414.06005859375
0, 11, 31, 426.5434265136719
0, 11, 32, 406.202880859375
0, 11, 33, 436.2905883789062
0, 11, 34, 446.2020263671875
0, 11, 35, 414.2150573730469
0, 11, 36, 407.7298583984375
0, 11, 37, 395.3610534667969
0, 11, 38, 410.3932800292969
0, 11, 39, 433.9016723632812
0, 11, 40, 379.2084350585938
0, 11, 41, 373.7591247558594
0, 11, 42, 361.0909118652344
0, 11, 43, 354.9954833984375
0, 11, 44, 342.4968566894531
0, 11, 45, 300.720947265625
0, 11, 46, 305.1278991699219
0, 11, 47, 318.3503112792969
0, 11, 48, 281.7495422363281
0, 11, 49, 287.1754150390625
0, 12, 0, 324.379638671875
0, 12, 1, 360.0744018554688
0, 12, 2, 348.8067626953125
0, 12, 3, 359.1083984375
0, 12, 4, 356.0420227050781
0, 12, 5, 316.1486511230469
0, 12, 6, 379.0109558105469
0, 12, 7, 388.8620910644531
0, 12, 8, 383.594970703125
0, 12, 9, 393.4907836914062
0, 12, 10, 401.3727111816406
0, 12, 11, 409.5067749023438
0, 12, 12, 427.093505859375
0, 12, 13, 420.9742126464844
0, 12, 14, 451.0782775878906
0, 12, 15, 449.3054504394531
0, 12, 16, 430.8827209472656
0, 12, 17, 446.3029479980469
0, 12, 18, 445.1223449707031
0, 12, 19, 451.895263671875
0, 12, 20, 436.7138671875
0, 12, 21, 470.5298461914062
0, 12, 22, 455.7686462402344
0, 12, 23, 433.0916748046875
0, 12, 24, 414.8019714355469
0, 12, 25, 441.7454528808594
0, 12, 26, 441.9202880859375
0, 12, 27, 445.6293334960938
0, 12, 28, 432.2338562011719
0, 12, 29, 453.4193420410156
0, 12, 30, 422.9759826660156
0, 12, 31, 437.2512817382812
0, 12, 32, 434.4291381835938
0, 12, 33, 462.5585021972656
0, 12, 34, 421.1388854980469
0, 12, 35, 436.9708862304688
0, 12, 36, 408.1723327636719
0, 12, 37, 415.2664794921875
0, 12, 38, 378.4209594726562
0, 12, 39, 386.255859375
0, 12, 40, 374.8051147460938
0, 12, 41, 394.7778625488281
0, 12, 42, 383.2087097167969
0, 12, 43, 372.8833312988281
0, 12, 44, 351.9471740722656
0, 12, 45, 345.6456298828125
0, 12, 46, 283.1731567382812
0, 12, 47, 292.2929992675781
0, 12, 48, 305.6162414550781
0, 12, 49, 283.3287353515625
0, 13, 0, 353.3783264160156
0, 13, 1, 329.0691833496094
0, 13, 2, 351.2930603027344
0, 13, 3, 348.0762939453125
0, 13, 4, 394.2293701171875
0, 13, 5, 365.9107971191406
0, 13, 6, 386.8390502929688
0, 13, 7, 387.6957702636719
0, 13, 8, 393.4560852050781
0, 13, 9, 396.0696105957031
0, 13, 10, 434.8934631347656
0, 13, 11, 413.3555603027344
0, 13, 12, 433.581787109375
0, 13, 13, 439.2682189941406
0, 13, 14, 452.7769165039062
0, 13, 15, 429.44140625
0, 13, 16, 477.1594848632812
0, 13, 17, 448.3699340820312
0, 13, 18, 453.4869995117188
0, 13, 19, 473.1687316894531
0, 13, 20, 480.4468078613281
0, 13, 21, 489.8964538574219
0, 13, 22, 478.0671691894531
0, 13, 23, 471.2861938476562
0, 13, 24, 456.72119140625
0, 13, 25, 488.3331604003906
0, 13, 26, 460.3195190429688
0, 13, 27, 470.272705078125
0, 13, 28, 461.9740600585938
0, 13, 29, 466.8913879394531
0, 13, 30, 460.9339904785156
0, 13, 31, 474.1460266113281
0, 13, 32, 464.4171142578125
0, 13, 33, 459.0704650878906
0, 13, 34, 449.9642639160156
0, 13, 35, 424.1111145019531
0, 13, 36, 430.2637939453125
0, 13, 37, 412.1025695800781
0, 13, 38, 396.8133544921875
0, 13, 39, 417.8918151855469
0, 13, 40, 402.0406188964844
0, 13, 41, 407.2398986816406
0, 13, 42, 401.1809997558594
0, 13, 43, 405.9762573242188
0, 13, 44, 363.8742980957031
0, 13, 45, 345.8818359375
0, 13, 46, 360.8020935058594
0, 13, 47, 340.4439086914062
0, 13, 48, 310.5102233886719
0, 13, 49, 292.3160095214844
0, 14, 0, 351.2697448730469
0, 14, 1, 354.6119079589844
0, 14, 2, 326.6624145507812
0, 14, 3, 362.038330078125
0, 14, 4, 397.82080078125
0, 14, 5, 385.7814025878906
0, 14, 6, 395.6839599609375
0, 14, 7, 384.0242004394531
0, 14, 8, 405.3708801269531
0, 14, 9, 419.7577209472656
0, 14, 10, 443.048583984375
0, 14, 11, 449.540771484375
0, 14, 12, 425.3885803222656
0, 14, 13, 445.2078247070312
0, 14, 14, 440.9284973144531
0, 14, 15, 472.6991271972656
0, 14, 16, 445.5538940429688
0, 14, 17, 432.4643249511719
0, 14, 18, 499.8155822753906
0, 14, 19, 485.239501953125
0, 14, 20, 482.8464965820312
0, 14, 21, 469.252197265625
0, 14, 22, 455.4739685058594
0, 14, 23, 472.3546447753906
0, 14, 24, 463.6188354492188
0, 14, 25, 456.0549011230469
0, 14, 26, 461.5159301757812
0, 14, 27, 486.1455993652344
0, 14, 28, 472.0328674316406
0, 14, 29, 448.0420227050781
0, 14, 30, 460.6404113769531
0, 14, 31, 460.577880859375
0, 14, 32, 437.5164489746094
0, 14, 33, 465.3099060058594
0, 14, 34, 459.4455261230469
0, 14, 35, 462.5135803222656
0, 14, 36, 434.4534912109375
0, 14, 37, 453.8101196289062
0, 14, 38, 424.1965942382812
0, 14, 39, 409.5093994140625
0, 14, 40, 420.1421508789062
0, 14, 41, 403.5594787597656
0, 14, 42, 407.0819091796875
0, 14, 43, 401.719482421875
0, 14, 44, 372.7848205566406
0, 14, 45, 340.3524475097656
0, 14, 46, 335.5846252441406
0, 14, 47, 347.1693420410156
0, 14, 48, 315.439697265625
0, 14, 49, 323.1254272460938
0, 15, 0, 341.7833862304688
0, 15, 1, 324.0821838378906
0, 15, 2, 319.6602172851562
0, 15, 3, 310.9847106933594
0, 15, 4, 349.8816528320312
0, 15, 5, 351.2157897949219
0, 15, 6, 433.3147277832031
0, 15, 7, 465.8196105957031
0, 15, 8, 410.7975463867188
0, 15, 9, 405.5576171875
0, 15, 10, 438.6827392578125
0, 15, 11, 425.0304260253906
0, 15, 12, 462.2208251953125
0, 15, 13, 470.5325317382812
0, 15, 14, 448.7154846191406
0, 15, 15, 442.3118591308594
0, 15, 16, 502.1766357421875
0, 15, 17, 421.1538391113281
0, 15, 18, 482.7567443847656
0, 15, 19, 514.1193237304688
0, 15, 20, 491.85595703125
0, 15, 21, 468.9018859863281
0, 15, 22, 468.2126770019531
0, 15, 23, 459.3008422851562
0, 15, 24, 469.5045471191406
0, 15, 25, 476.5885314941406
0, 15, 26, 522.2364501953125
0, 15, 27, 445.5077819824219
0, 15, 28, 437.1920471191406
0, 15, 29, 459.9402770996094
0, 15, 30, 493.1513061523438
0, 15, 31, 490.1123657226562
0, 15, 32, 462.0961303710938
0, 15, 33, 469.6938781738281
0, 15, 34, 484.4675598144531
0, 15, 35, 440.830322265625
0, 15, 36, 447.7705383300781
0, 15, 37, 452.2618408203125
0, 15, 38, 433.8141174316406
0, 15, 39, 453.3909912109375
0, 15, 40, 452.5578308105469
0, 15, 41, 428.3333129882812
0, 15, 42, 407.6044616699219
0, 15, 43, 370.0660095214844
0, 15, 44, 376.3174438476562
0, 15, 45, 362.0865173339844
0, 15, 46, 345.1874084472656
0, 15, 47, 373.8529663085938
0, 15, 48, 332.5827941894531
0, 15, 49, 315.9334716796875
0, 16, 0, 348.7546081542969
0, 16, 1, 403.0598754882812
0, 16, 2, 366.8049926757812
0, 16, 3, 358.2823791503906
0, 16, 4, 393.6919555664062
0, 16, 5, 371.84521484375
0, 16, 6, 378.3856811523438
0, 16, 7, 413.1612548828125
0, 16, 8, 385.8674621582031
0, 16, 9, 416.9659118652344
0, 16, 10, 432.3951416015625
0, 16, 11, 431.8131408691406
0, 16, 12, 488.9888000488281
0, 16, 13, 452.3818054199219
0, 16, 14, 456.3876342773438
0, 16, 15, 488.9732360839844
0, 16, 16, 507.5047302246094
0, 16, 17, 467.1519165039062
0, 16, 18, 466.1197204589844
0, 16, 19, 479.6517028808594
0, 16, 20, 512.2941284179688
0, 16, 21, 511.79541015625
0, 16, 22, 535.5382080078125
0, 16, 23, 509.48583984375
0, 16, 24, 492.13134765625
0, 16, 25, 551.1834716796875
0, 16, 26, 509.466064453125
0, 16, 27, 493.3185729980469
0, 16, 28, 504.8302612304688
0, 16, 29, 477.6822204589844
0, 16, 30, 469.2546081542969
0, 16, 31, 483.2449035644531
0, 16, 32, 473.1294860839844
0, 16, 33, 457.0245971679688
0, 16, 34, 507.9708862304688
0, 16, 35, 451.2661743164062
0, 16, 36, 444.8611450195312
0, 16, 37, 447.1354370117188
0, 16, 38, 450.4681091308594
0, 16, 39, 465.1236572265625
0, 16, 40, 431.9633483886719
0, 16, 41, 424.5416870117188
0, 16, 42, 423.9458312988281
0, 16, 43, 372.3038635253906
0, 16, 44, 405.9071350097656
0, 16, 45, 399.6330871582031
0, 16, 46, 389.5545959472656
0, 16, 47, 371.4314575195312
0, 16, 48, 347.1573181152344
0, 16, 49, 311.9554138183594
0, 17, 0, 340.6117858886719
0, 17, 1, 330.0574645996094
0, 17, 2, 357.9823913574219
0, 17, 3, 363.9443664550781
0, 17, 4, 394.7810363769531
0, 17, 5, 397.8958740234375
0, 17, 6, 405.6935424804688
0, 17, 7, 409.4376220703125
0, 17, 8, 458.9927673339844
0, 17, 9, 446.3136596679688
0, 17, 10, 429.6645812988281
0, 17, 11, 429.2139282226562
0, 17, 12, 465.1327819824219
0, 17, 13, 422.9754638671875
0, 17, 14, 462.5755920410156
0, 17, 15, 449.1813659667969
0, 17, 16, 509.8207092285156
0, 17, 17, 479.8862609863281
0, 17, 18, 467.5277709960938
0, 17, 19, 517.14599609375
0, 17, 20, 515.3486328125
0, 17, 21, 522.208251953125
0, 17, 22, 510.5017395019531
0, 17, 23, 496.9358215332031
0, 17, 24, 491.2401428222656
0, 17, 25, 490.2982482910156
0, 17, 26, 512.1138305664062
0, 17, 27, 500.0397644042969
0, 17, 28, 512.9702758789062
0, 17, 29, 506.2666320800781
0, 17, 30, 476.9845275878906
0, 17, 31, 528.0888061523438
0, 17, 32, 490.2718200683594
0, 17, 33, 474.1119384765625
0, 17, 34, 460.6121520996094
0, 17, 35, 491.8454284667969
0, 17, 36, 458.0252990722656
0, 17, 37, 466.1431274414062
0, 17, 38, 442.4528503417969
0, 17, 39, 454.2223510742188
0, 17, 40, 420.8742065429688
0, 17, 41, 410.8990783691406
0, 17, 42, 411.6980285644531
0, 17, 43, 407.1651306152344
0, 17, 44, 373.9868774414062
0, 17, 45, 376.2056884765625
0, 17, 46, 363.8797302246094
0, 17, 47, 376.6808166503906
0, 17, 48, 361.5063171386719
0, 17, 49, 355.5704956054688
0, 18, 0, 355.4195251464844
0, 18, 1, 372.41162109375
0, 18, 2, 392.1721496582031
0, 18, 3, 381.5394897460938
0, 18, 4, 429.8054504394531
0, 18, 5, 423.5851135253906
0, 18, 6, 433.1510314941406
0, 18, 7, 443.870849609375
0, 18, 8, 442.5477600097656
0, 18, 9, 448.6282958984375
0, 18, 10, 449.7228698730469
0, 18, 11, 443.5274963378906
0, 18, 12, 454.9461059570312
0, 18, 13, 454.3805236816406
0, 18, 14, 503.6785583496094
0, 18, 15, 492.2974548339844
0, 18, 16, 496.3978881835938
0, 18, 17, 471.217529296875
0, 18, 18, 472.6348266601562
0, 18, 19, 500.9470520019531
0, 18, 20, 523.524658203125
0, 18, 21, 516.1940307617188
0, 18, 22, 497.5917358398438
0, 18, 23, 516.9465942382812
0, 18, 24, 529.6265258789062
0, 18, 25, 539.6675415039062
0, 18, 26, 510.968017578125
0, 18, 27, 537.234619140625
0, 18, 28, 498.4266357421875
0, 18, 29, 525.4901123046875
0, 18, 30, 532.3753051757812
0, 18, 31, 512.315673828125
0, 18, 32, 499.7856140136719
0, 18, 33, 514.541015625
0, 18, 34, 505.42431640625
0, 18, 35, 487.5895690917969
0, 18, 36, 503.0671081542969
0, 18, 37, 459.3082885742188
0, 18, 38, 433.9825744628906
0, 18, 39, 430.1948852539062
0, 18, 40, 434.275146484375
0, 18, 41, 442.7563781738281
0, 18, 42, 433.2249755859375
0, 18, 43, 394.1280212402344
0, 18, 44, 394.4138793945312
0, 18, 45, 394.07763671875
0, 18, 46, 384.7733459472656
0, 18, 47, 358.9714050292969
0, 18, 48, 376.573974609375
0, 18, 49, 396.5907592773438
0, 19, 0, 358.330078125
0, 19, 1, 392.5623474121094
0, 19, 2, 358.8707275390625
0, 19, 3, 409.527099609375
0, 19, 4, 407.8584899902344
0, 19, 5, 416.5988464355469
0, 19, 6, 428.5104675292969
0, 19, 7, 473.7445373535156
0, 19, 8, 454.0478210449219
0, 19, 9, 432.1734008789062
0, 19, 10, 455.9959106445312
0, 19, 11, 470.7732543945312
0, 19, 12, 452.8500366210938
0, 19, 13, 481.7010803222656
0, 19, 14, 459.2485961914062
0, 19, 15, 466.3324279785156
0, 19, 16, 506.2793884277344
0, 19, 17, 486.6919860839844
0, 19, 18, 521.919189453125
0, 19, 19, 493.4840087890625
0, 19, 20, 546.7698364257812
0, 19, 21, 535.635986328125
0, 19, 22, 529.5399169921875
0, 19, 23, 552.6422119140625
0, 19, 24, 535.7525634765625
0, 19, 25, 528.1820068359375
0, 19, 26, 525.3257446289062
0, 19, 27, 499.8858947753906
0, 19, 28, 526.1716918945312
0, 19, 29, 517.025390625
0, 19, 30, 509.1259460449219
0, 19, 31, 537.75341796875
0, 19, 32, 480.46337890625
0, 19, 33, 558.806396484375
0, 19, 34, 508.8443908691406
0, 19, 35, 468.6207275390625
0, 19, 36, 479.0784301757812
0, 19, 37, 438.3939208984375
0, 19, 38, 479.1329040527344
0, 19, 39, 484.2838439941406
0, 19, 40, 468.9609680175781
0, 19, 41, 421.0833129882812
0, 19, 42, 389.6793518066406
0, 19, 43, 458.9176635742188
0, 19, 44, 410.5218505859375
0, 19, 45, 406.1722412109375
0, 19, 46, 368.4938049316406
0, 19, 47, 370.363037109375
0, 19, 48, 348.8634338378906
0, 19, 49, 344.9910278320312
0, 20, 0, 386.4035339355469
0, 20, 1, 375.9611511230469
0, 20, 2, 381.729248046875
0, 20, 3, 400.1454162597656
0, 20, 4, 405.4777526855469
0, 20, 5, 401.5947875976562
0, 20, 6, 406.0885314941406
0, 20, 7, 439.98974609375
0, 20, 8, 465.1842346191406
0, 20, 9, 435.2678527832031
0, 20, 10, 487.5941162109375
0, 20, 11, 475.0876770019531
0, 20, 12, 459.7037963867188
0, 20, 13, 494.9742431640625
0, 20, 14, 485.7399597167969
0, 20, 15, 460.5870361328125
0, 20, 16, 535.9420166015625
0, 20, 17, 528.8617553710938
0, 20, 18, 521.4852294921875
0, 20, 19, 543.619384765625
0, 20, 20, 502.6097106933594
0, 20, 21, 538.4658203125
0, 20, 22, 543.6062622070312
0, 20, 23, 553.45751953125
0, 20, 24, 514.9894409179688
0, 20, 25, 569.771484375
0, 20, 26, 497.118896484375
0, 20, 27, 495.5529479980469
0, 20, 28, 520.736572265625
0, 20, 29, 534.2424926757812
0, 20, 30, 518.7149047851562
0, 20, 31, 527.3853149414062
0, 20, 32, 539.09228515625
0, 20, 33, 506.5150146484375
0, 20, 34, 508.761962890625
0, 20, 35, 478.7174377441406
0, 20, 36, 497.0680236816406
0, 20, 37, 484.5942687988281
0, 20, 38, 478.5013732910156
0, 20, 39, 430.1841430664062
0, 20, 40, 452.8065490722656
0, 20, 41, 472.1658630371094
0, 20, 42, 435.3460388183594
0, 20, 43, 422.6046142578125
0, 20, 44, 419.0664367675781
0, 20, 45, 423.2626953125
0, 20, 46, 384.8850402832031
0, 20, 47, 367.2489929199219
0, 20, 48, 388.4159545898438
0, 20, 49, 400.2237548828125
0, 21, 0, 366.5288391113281
0, 21, 1, 343.8075561523438
0, 21, 2, 373.8768005371094
0, 21, 3, 399.8671569824219
0, 21, 4, 415.4709777832031
0, 21, 5, 411.8160095214844
0, 21, 6, 419.9889526367188
0, 21, 7, 444.1894836425781
0, 21, 8, 463.5454406738281
