# TOPAS Version: 3.7
# Parameter File: TestingDose1.txt
# Results for scorer TestingDose1
# Scored in component: Phantom
# X in 50 bins of 0.1 cm
# Y in 50 bins of 0.1 cm
# Z in 50 bins of 0.1 cm
# DoseToMedium ( Gy ) : Sum   
0, 0, 0, 5.852967888131388e-09
0, 0, 1, 1.013810635441814e-08
0, 0, 2, 3.524792457909598e-09
0, 0, 3, 2.474286020515137e-08
0, 0, 4, 6.539301544705722e-09
0, 0, 5, 4.784721507888889e-09
0, 0, 6, 5.415732307056942e-09
0, 0, 7, 1.504192326251541e-08
0, 0, 8, 2.159825918113256e-08
0, 0, 9, 1.243757186131234e-08
0, 0, 10, 1.269806571002619e-08
0, 0, 11, 1.48988998915911e-08
0, 0, 12, 2.05986427914695e-08
0, 0, 13, 5.669287705956094e-09
0, 0, 14, 1.270886773596658e-08
0, 0, 15, 4.349899107580768e-09
0, 0, 16, 1.319889308959432e-09
0, 0, 17, 5.698723271052586e-09
0, 0, 18, 6.41313313565206e-09
0, 0, 19, 1.055064302590836e-08
0, 0, 20, 1.656643000558233e-08
0, 0, 21, 2.747894800592121e-09
0, 0, 22, 3.173782125998059e-09
0, 0, 23, 9.753744478757653e-09
0, 0, 24, 9.293704472668196e-09
0, 0, 25, 4.427341160351261e-09
0, 0, 26, 9.680354295937832e-09
0, 0, 27, 9.96306770417732e-09
0, 0, 28, 3.950509253058954e-09
0, 0, 29, 4.365872108280655e-09
0, 0, 30, 3.403427317749674e-09
0, 0, 31, 7.943940616428335e-09
0, 0, 32, 6.069458269308825e-09
0, 0, 33, 1.352699818824021e-08
0, 0, 34, 7.790005973618008e-09
0, 0, 35, 1.232498547665273e-08
0, 0, 36, 7.385061451259389e-09
0, 0, 37, 2.406481947048178e-08
0, 0, 38, 8.924988748049145e-09
0, 0, 39, 5.608465691864239e-09
0, 0, 40, 1.262389659473229e-08
0, 0, 41, 1.021006212909015e-08
0, 0, 42, 1.074430144853977e-08
0, 0, 43, 1.899273804895074e-08
0, 0, 44, 5.285570869872913e-10
0, 0, 45, 0
0, 0, 46, 6.319922807307421e-09
0, 0, 47, 5.55959323023103e-09
0, 0, 48, 1.20359944233428e-08
0, 0, 49, 1.258085102762152e-08
0, 1, 0, 4.126935682080557e-09
0, 1, 1, 1.522836434730834e-08
0, 1, 2, 2.620200723058019e-09
0, 1, 3, 1.275232364150725e-08
0, 1, 4, 1.458668297260601e-09
0, 1, 5, 1.625845946762183e-08
0, 1, 6, 3.912693502527986e-10
0, 1, 7, 7.606389296199723e-09
0, 1, 8, 1.97278140490198e-08
0, 1, 9, 3.717670615799307e-09
0, 1, 10, 1.396328208613795e-08
0, 1, 11, 6.298405796911766e-09
0, 1, 12, 4.345719162301975e-08
0, 1, 13, 1.287541540051507e-08
0, 1, 14, 1.376430880384305e-08
0, 1, 15, 7.489655118320115e-09
0, 1, 16, 2.035680246592619e-08
0, 1, 17, 5.089983101669304e-09
0, 1, 18, 2.122089526324089e-08
0, 1, 19, 1.112029046623775e-08
0, 1, 20, 6.431066346124226e-09
0, 1, 21, 2.014598976529669e-08
0, 1, 22, 7.897518194965869e-09
0, 1, 23, 2.527927023265875e-08
0, 1, 24, 6.766103677335877e-09
0, 1, 25, 6.22334050959239e-09
0, 1, 26, 9.576543114064862e-09
0, 1, 27, 1.073239985771579e-08
0, 1, 28, 6.588990242306636e-09
0, 1, 29, 5.324268581574643e-09
0, 1, 30, 2.07964889753498e-09
0, 1, 31, 3.977872253813075e-09
0, 1, 32, 0
0, 1, 33, 9.534513623066232e-09
0, 1, 34, 9.267902001397488e-09
0, 1, 35, 8.306850318717807e-09
0, 1, 36, 2.406028265511395e-08
0, 1, 37, 6.581132083738339e-09
0, 1, 38, 6.648447570256621e-09
0, 1, 39, 5.34675725916145e-09
0, 1, 40, 4.003115172679372e-09
0, 1, 41, 5.852497153568947e-09
0, 1, 42, 5.239325862049782e-09
0, 1, 43, 4.126431196738167e-09
0, 1, 44, 1.779803193713292e-09
0, 1, 45, 6.423335197069946e-09
0, 1, 46, 1.159507156955897e-09
0, 1, 47, 5.965016258713263e-10
0, 1, 48, 3.442611529180795e-09
0, 1, 49, 3.49204420935223e-09
0, 2, 0, 9.907902942529745e-09
0, 2, 1, 7.767685161752524e-09
0, 2, 2, 1.043994579674745e-08
0, 2, 3, 1.309850183872641e-08
0, 2, 4, 1.077025402196341e-08
0, 2, 5, 9.518055676949189e-09
0, 2, 6, 9.615753526759363e-09
0, 2, 7, 1.156679818592465e-08
0, 2, 8, 1.363013879540631e-08
0, 2, 9, 1.308170638480988e-08
0, 2, 10, 5.082581466808733e-09
0, 2, 11, 7.298762483287646e-09
0, 2, 12, 9.36048127897493e-09
0, 2, 13, 1.369004642981508e-08
0, 2, 14, 3.554040617359533e-09
0, 2, 15, 6.740469515875702e-09
0, 2, 16, 1.409900640680917e-08
0, 2, 17, 1.954027339934328e-08
0, 2, 18, 7.236360843876355e-09
0, 2, 19, 1.139781780068461e-08
0, 2, 20, 9.599004924254473e-10
0, 2, 21, 6.204345925908683e-09
0, 2, 22, 6.54546994383054e-09
0, 2, 23, 7.239652877188973e-09
0, 2, 24, 1.951999273330784e-08
0, 2, 25, 1.049579800849187e-08
0, 2, 26, 2.200883386649366e-08
0, 2, 27, 4.406097708908874e-09
0, 2, 28, 1.123072213005116e-08
0, 2, 29, 1.067872013038595e-08
0, 2, 30, 1.428050300233963e-08
0, 2, 31, 1.933157811606634e-08
0, 2, 32, 1.503544311276528e-08
0, 2, 33, 7.360763110142443e-09
0, 2, 34, 8.767061743242266e-09
0, 2, 35, 1.722214482136053e-09
0, 2, 36, 2.919207808815827e-08
0, 2, 37, 1.325198084600743e-08
0, 2, 38, 5.607697861620409e-09
0, 2, 39, 1.108743852284988e-08
0, 2, 40, 2.750085048575102e-09
0, 2, 41, 1.037344876664292e-08
0, 2, 42, 5.161942873144199e-09
0, 2, 43, 3.296732220547938e-09
0, 2, 44, 1.205159438910641e-08
0, 2, 45, 1.262550064495827e-09
0, 2, 46, 1.116933123768149e-08
0, 2, 47, 9.278275370228073e-10
0, 2, 48, 5.635086175459492e-09
0, 2, 49, 4.490852134608758e-09
0, 3, 0, 6.108512362601459e-09
0, 3, 1, 1.93076949983606e-08
0, 3, 2, 8.949256447010612e-09
0, 3, 3, 1.08100364215602e-08
0, 3, 4, 8.955298724799832e-09
0, 3, 5, 1.251335257634878e-09
0, 3, 6, 1.536703031490561e-08
0, 3, 7, 7.366835141908723e-09
0, 3, 8, 2.100050622289018e-08
0, 3, 9, 9.831337965948705e-10
0, 3, 10, 1.277668904009488e-08
0, 3, 11, 1.029089080617496e-08
0, 3, 12, 2.048825820111233e-08
0, 3, 13, 1.195570220602349e-08
0, 3, 14, 1.020683093599928e-08
0, 3, 15, 6.065965063584144e-09
0, 3, 16, 7.508727861704756e-09
0, 3, 17, 2.771767171338979e-08
0, 3, 18, 1.48128194155106e-08
0, 3, 19, 8.083067548625422e-09
0, 3, 20, 1.303842989130999e-08
0, 3, 21, 2.178617286574536e-09
0, 3, 22, 1.337287702796175e-08
0, 3, 23, 1.429741569580756e-08
0, 3, 24, 1.276676364625473e-08
0, 3, 25, 1.607007860116028e-08
0, 3, 26, 1.149096817698592e-08
0, 3, 27, 2.612561722514783e-09
0, 3, 28, 9.37778033005543e-09
0, 3, 29, 2.084797223744772e-09
0, 3, 30, 2.566079615462513e-08
0, 3, 31, 1.106877167700304e-08
0, 3, 32, 1.796267845577404e-08
0, 3, 33, 4.802129360825802e-09
0, 3, 34, 7.368253118755774e-09
0, 3, 35, 7.455578376891481e-09
0, 3, 36, 5.223030896672753e-09
0, 3, 37, 1.318032349928444e-08
0, 3, 38, 4.212478810217135e-09
0, 3, 39, 6.804173668939484e-09
0, 3, 40, 1.100614444027315e-08
0, 3, 41, 9.136088330308212e-09
0, 3, 42, 5.707629480156129e-09
0, 3, 43, 8.499000614392571e-09
0, 3, 44, 1.046139530558321e-08
0, 3, 45, 3.091594313886503e-09
0, 3, 46, 1.192691190254891e-08
0, 3, 47, 6.310913569507193e-09
0, 3, 48, 7.426882664418599e-09
0, 3, 49, 5.551990867047607e-09
0, 4, 0, 6.921388351344149e-09
0, 4, 1, 7.972623450314131e-09
0, 4, 2, 2.337058901957789e-08
0, 4, 3, 2.875621518683147e-09
0, 4, 4, 7.990998085460888e-09
0, 4, 5, 7.33571425826085e-09
0, 4, 6, 1.296966445352155e-08
0, 4, 7, 2.055061543160264e-08
0, 4, 8, 6.188968004749995e-09
0, 4, 9, 1.921619308120626e-08
0, 4, 10, 7.624339382061862e-09
0, 4, 11, 1.783962311208143e-08
0, 4, 12, 4.389185903619364e-09
0, 4, 13, 2.58684873521986e-09
0, 4, 14, 1.724482601161981e-08
0, 4, 15, 1.159576523690475e-08
0, 4, 16, 1.339040256453927e-08
0, 4, 17, 1.534674254344282e-08
0, 4, 18, 1.883376654632229e-08
0, 4, 19, 1.75259753376622e-08
0, 4, 20, 2.098112084070181e-08
0, 4, 21, 7.72510855284736e-09
0, 4, 22, 3.962194572437738e-09
0, 4, 23, 9.399003353394164e-09
0, 4, 24, 2.015826616741379e-08
0, 4, 25, 7.587627415261977e-09
0, 4, 26, 1.164741103565348e-08
0, 4, 27, 1.293138485181089e-08
0, 4, 28, 1.457362852619326e-08
0, 4, 29, 1.481935729685802e-08
0, 4, 30, 5.324193863565085e-10
0, 4, 31, 1.865394594346981e-08
0, 4, 32, 3.90458243515468e-09
0, 4, 33, 1.014485206951576e-08
0, 4, 34, 1.711463326614648e-08
0, 4, 35, 1.373663938153413e-08
0, 4, 36, 6.704043542526961e-09
0, 4, 37, 1.040555464015824e-08
0, 4, 38, 1.92756441919073e-08
0, 4, 39, 1.618567502248425e-08
0, 4, 40, 7.464944218327219e-09
0, 4, 41, 7.732409379457295e-09
0, 4, 42, 3.275747673114893e-08
0, 4, 43, 3.200203435582694e-09
0, 4, 44, 4.233053019220279e-09
0, 4, 45, 1.828679785376153e-08
0, 4, 46, 7.440633442712397e-09
0, 4, 47, 4.11300504765677e-09
0, 4, 48, 9.773156506298619e-09
0, 4, 49, 1.424314266529336e-08
0, 5, 0, 1.110355096756166e-08
0, 5, 1, 1.623776946235722e-10
0, 5, 2, 1.911010194532992e-08
0, 5, 3, 1.381201020222989e-08
0, 5, 4, 2.095344342478711e-08
0, 5, 5, 1.601956967078877e-08
0, 5, 6, 3.515604518611326e-08
0, 5, 7, 5.862704988146561e-09
0, 5, 8, 1.308855068771209e-08
0, 5, 9, 8.176506582913134e-09
0, 5, 10, 1.07435091933894e-08
0, 5, 11, 1.541061145360345e-08
0, 5, 12, 1.382190184529009e-08
0, 5, 13, 7.727183337635779e-09
0, 5, 14, 2.891454187192721e-08
0, 5, 15, 1.108371883162818e-08
0, 5, 16, 1.011835681907769e-08
0, 5, 17, 9.212961948890097e-09
0, 5, 18, 1.919650749471202e-08
0, 5, 19, 2.741044724530184e-09
0, 5, 20, 6.983459588383312e-09
0, 5, 21, 1.075817390727707e-08
0, 5, 22, 1.521430625928133e-08
0, 5, 23, 2.829677825388899e-08
0, 5, 24, 1.881321942676095e-08
0, 5, 25, 2.275682753349884e-08
0, 5, 26, 9.915458676346134e-09
0, 5, 27, 2.220889916415558e-09
0, 5, 28, 8.138985485572903e-09
0, 5, 29, 9.176025272950028e-09
0, 5, 30, 6.865512602871604e-09
0, 5, 31, 1.865249643628886e-08
0, 5, 32, 3.029345307936637e-08
0, 5, 33, 3.159104622341147e-08
0, 5, 34, 1.588701792343272e-08
0, 5, 35, 2.50110581134777e-08
0, 5, 36, 9.366253550524561e-09
0, 5, 37, 1.535354243742404e-08
0, 5, 38, 2.454764036485813e-08
0, 5, 39, 8.870492784751605e-09
0, 5, 40, 2.70527733547965e-09
0, 5, 41, 1.599831911391902e-08
0, 5, 42, 7.395688950140311e-09
0, 5, 43, 2.986371683277866e-08
0, 5, 44, 1.395712789786785e-08
0, 5, 45, 2.09347419399819e-08
0, 5, 46, 1.011993333577266e-08
0, 5, 47, 2.107732477441004e-08
0, 5, 48, 1.79992181159605e-08
0, 5, 49, 7.624446851650646e-09
0, 6, 0, 9.484572238704914e-09
0, 6, 1, 4.653640583995866e-09
0, 6, 2, 2.20256701766175e-08
0, 6, 3, 1.648590064462496e-08
0, 6, 4, 1.307344277279299e-08
0, 6, 5, 1.36523290450441e-08
0, 6, 6, 4.001892150995445e-09
0, 6, 7, 1.726946941005281e-08
0, 6, 8, 2.194186699000511e-08
0, 6, 9, 7.046815575506571e-09
0, 6, 10, 3.144648985653475e-08
0, 6, 11, 1.625965850848843e-08
0, 6, 12, 3.296456796419989e-08
0, 6, 13, 9.418215096701488e-10
0, 6, 14, 2.084351002906715e-08
0, 6, 15, 7.363535114990327e-09
0, 6, 16, 5.520580881324122e-09
0, 6, 17, 7.516600675216978e-09
0, 6, 18, 9.702164405211988e-09
0, 6, 19, 8.531262807309759e-09
0, 6, 20, 1.292505302785685e-08
0, 6, 21, 1.935646487538634e-08
0, 6, 22, 1.415185302278132e-08
0, 6, 23, 7.821341796443448e-09
0, 6, 24, 1.84388095902932e-08
0, 6, 25, 5.751409126730778e-09
0, 6, 26, 1.310053754366436e-08
0, 6, 27, 8.801042561401573e-09
0, 6, 28, 8.087009284452051e-09
0, 6, 29, 2.181762548403299e-09
0, 6, 30, 7.634171517167943e-09
0, 6, 31, 8.886013702635864e-09
0, 6, 32, 2.03412078292331e-08
0, 6, 33, 1.044011210815654e-09
0, 6, 34, 7.390109413307755e-09
0, 6, 35, 1.526701431942001e-08
0, 6, 36, 2.320131287092408e-08
0, 6, 37, 1.427472007264896e-08
0, 6, 38, 1.233522173293977e-08
0, 6, 39, 1.513309122458395e-08
0, 6, 40, 7.343166075202134e-09
0, 6, 41, 1.22412391334592e-08
0, 6, 42, 2.075771021736728e-08
0, 6, 43, 2.324107573059564e-09
0, 6, 44, 6.873211777502775e-09
0, 6, 45, 5.160521787672678e-09
0, 6, 46, 8.598024514583358e-10
0, 6, 47, 8.748368252042837e-09
0, 6, 48, 1.942395932985619e-08
0, 6, 49, 9.457930438827589e-09
0, 7, 0, 1.768459512163645e-08
0, 7, 1, 1.184191855685413e-08
0, 7, 2, 1.454017972690735e-08
0, 7, 3, 6.567330235185409e-09
0, 7, 4, 9.952668911239471e-09
0, 7, 5, 1.566630558613724e-08
0, 7, 6, 6.319879730654065e-09
0, 7, 7, 9.468594797112928e-09
0, 7, 8, 8.383339356043962e-09
0, 7, 9, 3.245401103413315e-08
0, 7, 10, 1.145852301931427e-08
0, 7, 11, 1.232087765146161e-08
0, 7, 12, 1.357535506230079e-08
0, 7, 13, 1.021409712365084e-08
0, 7, 14, 2.587710490331574e-08
0, 7, 15, 1.141511241087301e-08
0, 7, 16, 2.852814873222087e-08
0, 7, 17, 2.230392937008219e-08
0, 7, 18, 9.280354262841684e-09
0, 7, 19, 1.030466822982135e-08
0, 7, 20, 2.121195485926819e-08
0, 7, 21, 2.569999324464334e-08
0, 7, 22, 1.179254560668141e-08
0, 7, 23, 3.826811756368897e-09
0, 7, 24, 1.548376182824995e-08
0, 7, 25, 2.633235851590143e-08
0, 7, 26, 5.683573611747761e-09
0, 7, 27, 7.604248786208245e-09
0, 7, 28, 1.317602649208993e-08
0, 7, 29, 1.112984726603372e-08
0, 7, 30, 4.193422054044049e-09
0, 7, 31, 7.746102426153811e-09
0, 7, 32, 6.267052210517932e-09
0, 7, 33, 1.765639723316781e-08
0, 7, 34, 1.401453175731149e-08
0, 7, 35, 1.516455228056657e-08
0, 7, 36, 1.441098884669145e-08
0, 7, 37, 5.821636950287257e-09
0, 7, 38, 6.813876574085498e-09
0, 7, 39, 7.044227867680775e-09
0, 7, 40, 8.219945613063828e-09
0, 7, 41, 1.088656986780734e-08
0, 7, 42, 1.343965205791164e-08
0, 7, 43, 7.32016536275637e-09
0, 7, 44, 4.875734038733981e-09
0, 7, 45, 1.142106231810658e-08
0, 7, 46, 4.738847536600588e-09
0, 7, 47, 9.612095119848618e-09
0, 7, 48, 5.783191259212117e-09
0, 7, 49, 4.679725051914829e-09
0, 8, 0, 4.828454969185714e-09
0, 8, 1, 1.302696617244692e-08
0, 8, 2, 1.254117876214877e-08
0, 8, 3, 1.381316838688917e-08
0, 8, 4, 1.73813425874414e-08
0, 8, 5, 1.332144972110427e-08
0, 8, 6, 1.487637235619843e-09
0, 8, 7, 1.242999747574913e-08
0, 8, 8, 1.819422301707618e-08
0, 8, 9, 7.424870052119559e-09
0, 8, 10, 2.259613474109301e-08
0, 8, 11, 4.317808333098583e-09
0, 8, 12, 1.280918748847171e-08
0, 8, 13, 1.99469987194334e-08
0, 8, 14, 1.699084606343604e-08
0, 8, 15, 1.461453180695571e-08
0, 8, 16, 4.325737101851246e-09
0, 8, 17, 1.559189222177793e-08
0, 8, 18, 3.158064743047362e-08
0, 8, 19, 2.36680595122607e-08
0, 8, 20, 1.906028401776894e-08
0, 8, 21, 7.908175447823851e-09
0, 8, 22, 1.482640232808308e-08
0, 8, 23, 2.193101167335954e-08
0, 8, 24, 2.816937438865352e-08
0, 8, 25, 2.952336686234958e-08
0, 8, 26, 1.621766010373449e-08
0, 8, 27, 1.378736946833214e-08
0, 8, 28, 1.883449840534013e-08
0, 8, 29, 1.278378114477619e-08
0, 8, 30, 1.511412506260967e-08
0, 8, 31, 1.059848209195025e-08
0, 8, 32, 1.562522733422611e-08
0, 8, 33, 3.076844024008096e-08
0, 8, 34, 4.313773782627095e-09
0, 8, 35, 1.822803064044365e-08
0, 8, 36, 1.632088952874255e-08
0, 8, 37, 7.750347030821558e-09
0, 8, 38, 9.509530052298487e-09
0, 8, 39, 4.067749870273474e-08
0, 8, 40, 8.213119961908433e-09
0, 8, 41, 1.444331054756276e-08
0, 8, 42, 3.404775128501569e-09
0, 8, 43, 1.074337685480486e-08
0, 8, 44, 2.15914983670018e-08
0, 8, 45, 4.174565582104606e-09
0, 8, 46, 1.001856375637544e-08
0, 8, 47, 5.661521029765026e-09
0, 8, 48, 3.364302836317279e-09
0, 8, 49, 1.023135620670246e-08
0, 9, 0, 1.964835050216607e-08
0, 9, 1, 1.29785622249301e-08
0, 9, 2, 2.067347848466738e-09
0, 9, 3, 1.290556195243653e-08
0, 9, 4, 7.881397756648312e-09
0, 9, 5, 1.284565520620617e-08
0, 9, 6, 4.308814638420699e-08
0, 9, 7, 1.138213079343586e-08
0, 9, 8, 8.43351788404334e-09
0, 9, 9, 2.878657845428734e-08
0, 9, 10, 7.572722893200989e-09
0, 9, 11, 1.684328765350074e-08
0, 9, 12, 9.522077348833591e-09
0, 9, 13, 2.433663937040365e-08
0, 9, 14, 4.206225412417552e-08
0, 9, 15, 9.648564613939925e-09
0, 9, 16, 1.574549202132403e-08
0, 9, 17, 1.026757345812257e-08
0, 9, 18, 2.460462411590925e-08
0, 9, 19, 3.109073887230807e-08
0, 9, 20, 2.977884960841948e-08
0, 9, 21, 1.744701272343718e-08
0, 9, 22, 1.094243895494174e-08
0, 9, 23, 1.608518651607937e-08
0, 9, 24, 4.709436840499848e-09
0, 9, 25, 1.375264968572765e-08
0, 9, 26, 1.827617879257559e-08
0, 9, 27, 3.917103086337193e-08
0, 9, 28, 1.293286455705811e-08
0, 9, 29, 1.022714180010098e-08
0, 9, 30, 1.402240457082371e-08
0, 9, 31, 8.991682065584428e-09
0, 9, 32, 1.665185855870277e-08
0, 9, 33, 1.168910479520946e-08
0, 9, 34, 1.26653256771192e-08
0, 9, 35, 2.132895193796003e-09
0, 9, 36, 1.389629744608101e-08
0, 9, 37, 1.037158359196155e-08
0, 9, 38, 3.913251944709373e-08
0, 9, 39, 1.440023122967204e-08
0, 9, 40, 9.789999033671393e-09
0, 9, 41, 1.647235059465402e-08
0, 9, 42, 7.395216439221031e-09
0, 9, 43, 3.163639350489689e-09
0, 9, 44, 1.781687020141476e-09
0, 9, 45, 5.746848330545618e-09
0, 9, 46, 7.784659139531414e-09
0, 9, 47, 3.957734584503214e-09
0, 9, 48, 3.085709909811385e-09
0, 9, 49, 8.75745431727637e-09
0, 10, 0, 6.410896258302046e-09
0, 10, 1, 7.813650171328845e-09
0, 10, 2, 2.371051088800868e-08
0, 10, 3, 8.093001824249768e-09
0, 10, 4, 3.568854012314659e-08
0, 10, 5, 1.358192047717921e-08
0, 10, 6, 2.532156706536171e-08
0, 10, 7, 8.638905590885315e-09
0, 10, 8, 1.018550488396386e-08
0, 10, 9, 3.717180874218684e-08
0, 10, 10, 1.881216604715519e-08
0, 10, 11, 1.010929207012623e-08
0, 10, 12, 1.15448530735307e-08
0, 10, 13, 1.259149673416005e-08
0, 10, 14, 2.357815986897549e-08
0, 10, 15, 4.769629313727819e-08
0, 10, 16, 6.684528930378519e-09
0, 10, 17, 1.774376912067055e-08
0, 10, 18, 5.517176493441411e-09
0, 10, 19, 3.175094320795324e-08
0, 10, 20, 6.448589218166489e-09
0, 10, 21, 1.223540913031229e-08
0, 10, 22, 7.611895114223444e-09
0, 10, 23, 2.642977392497414e-08
0, 10, 24, 2.058181003405934e-08
0, 10, 25, 2.819570532608395e-08
0, 10, 26, 2.821195721480763e-08
0, 10, 27, 1.526045068089843e-08
0, 10, 28, 1.692606943493047e-08
0, 10, 29, 1.139107919101434e-08
0, 10, 30, 1.255323933690988e-08
0, 10, 31, 1.345370126415446e-08
0, 10, 32, 1.158267881606889e-08
0, 10, 33, 2.52488630003711e-09
0, 10, 34, 6.945066743924144e-09
0, 10, 35, 2.755036554447088e-08
0, 10, 36, 1.022395323957426e-08
0, 10, 37, 1.776923141960651e-08
0, 10, 38, 7.696907999843461e-09
0, 10, 39, 6.131103624795742e-09
0, 10, 40, 1.556653828060917e-08
0, 10, 41, 2.377226770988727e-08
0, 10, 42, 9.380602961073237e-09
0, 10, 43, 7.878962371421494e-09
0, 10, 44, 1.820012585085351e-08
0, 10, 45, 1.596003862402995e-08
0, 10, 46, 9.527066247017046e-09
0, 10, 47, 2.097264406586419e-08
0, 10, 48, 1.203773081215331e-09
0, 10, 49, 1.491968326661208e-08
0, 11, 0, 1.466686327944444e-08
0, 11, 1, 1.381694847424342e-08
0, 11, 2, 9.119454524864068e-09
0, 11, 3, 1.070456701057765e-08
0, 11, 4, 1.089971757295416e-08
0, 11, 5, 2.206792082404263e-08
0, 11, 6, 1.047835862522106e-08
0, 11, 7, 1.730208154526736e-08
0, 11, 8, 4.735294378832577e-09
0, 11, 9, 2.416602029597925e-08
0, 11, 10, 2.043761071490735e-08
0, 11, 11, 1.010301353687737e-08
0, 11, 12, 2.578614655135425e-08
0, 11, 13, 9.605180650851253e-09
0, 11, 14, 2.622327777146438e-08
0, 11, 15, 1.989848463779254e-08
0, 11, 16, 2.641214535969993e-08
0, 11, 17, 2.026105505592568e-09
0, 11, 18, 8.196313849850867e-09
0, 11, 19, 1.687608275346975e-08
0, 11, 20, 2.969727752599738e-08
0, 11, 21, 1.919524805771289e-08
0, 11, 22, 2.755288264211231e-08
0, 11, 23, 2.374094165702445e-08
0, 11, 24, 2.723355096989621e-09
0, 11, 25, 1.065673771449838e-08
0, 11, 26, 2.465366577553141e-08
0, 11, 27, 7.974708005065168e-09
0, 11, 28, 1.393229265289619e-08
0, 11, 29, 1.308825048340623e-08
0, 11, 30, 1.001892524499226e-08
0, 11, 31, 9.335528794451875e-09
0, 11, 32, 9.787908261671419e-09
0, 11, 33, 1.17569189939104e-08
0, 11, 34, 1.035674124238994e-08
0, 11, 35, 3.501449796772249e-08
0, 11, 36, 4.078823678810295e-08
0, 11, 37, 1.013168837715739e-08
0, 11, 38, 7.126125023404484e-09
0, 11, 39, 1.054641884934426e-08
0, 11, 40, 6.35837116291782e-09
0, 11, 41, 5.278652626117264e-09
0, 11, 42, 2.322007652821867e-08
0, 11, 43, 2.819231603723438e-08
0, 11, 44, 9.336839745799352e-09
0, 11, 45, 1.358932610884267e-08
0, 11, 46, 2.200726711976131e-08
0, 11, 47, 2.777061958170179e-08
0, 11, 48, 1.932138449234344e-09
0, 11, 49, 1.764319890185106e-08
0, 12, 0, 3.106725898760487e-08
0, 12, 1, 3.263236081352261e-08
0, 12, 2, 3.333403331140516e-09
0, 12, 3, 9.10777764318027e-09
0, 12, 4, 1.382202707844726e-08
0, 12, 5, 1.23174368482637e-08
0, 12, 6, 9.255483490733241e-09
0, 12, 7, 3.828936101513136e-08
0, 12, 8, 1.624803580568823e-08
0, 12, 9, 1.032691443469957e-08
0, 12, 10, 1.436862095971492e-08
0, 12, 11, 6.255069795457757e-09
0, 12, 12, 7.404154622747683e-09
0, 12, 13, 4.02892439410607e-08
0, 12, 14, 2.597037429552529e-08
0, 12, 15, 1.394883586414153e-08
0, 12, 16, 1.404539951010975e-08
0, 12, 17, 1.545869032781866e-08
0, 12, 18, 2.013876532203085e-08
0, 12, 19, 1.814879091455168e-08
0, 12, 20, 1.410201555529511e-08
0, 12, 21, 1.387559134258254e-08
0, 12, 22, 2.901417062162182e-08
0, 12, 23, 2.117054798134177e-08
0, 12, 24, 1.615850386826878e-08
0, 12, 25, 2.589392344987118e-08
0, 12, 26, 1.424167539454402e-08
0, 12, 27, 4.527553887356817e-09
0, 12, 28, 1.361330603799615e-08
0, 12, 29, 2.173334623378764e-09
0, 12, 30, 7.036926064074578e-08
0, 12, 31, 1.222759049568367e-08
0, 12, 32, 1.493666079710465e-09
0, 12, 33, 1.42261384894482e-08
0, 12, 34, 1.765713797396984e-08
0, 12, 35, 7.244152833152384e-09
0, 12, 36, 1.576352559595762e-08
0, 12, 37, 9.555773061720174e-09
0, 12, 38, 2.787281294658328e-09
0, 12, 39, 3.594846731402868e-08
0, 12, 40, 4.405033671162073e-09
0, 12, 41, 7.518111466708888e-09
0, 12, 42, 1.901369017787147e-08
0, 12, 43, 3.339732934648509e-09
0, 12, 44, 1.660650283952236e-08
0, 12, 45, 3.191005859548568e-08
0, 12, 46, 4.179213863864106e-09
0, 12, 47, 4.587110247200599e-09
0, 12, 48, 2.160630074854453e-08
0, 12, 49, 2.46148790239431e-08
0, 13, 0, 4.937628528267624e-09
0, 13, 1, 1.269265936798547e-08
0, 13, 2, 9.271840184510438e-09
0, 13, 3, 3.922139768519628e-08
0, 13, 4, 1.040197350477001e-08
0, 13, 5, 7.248435629492178e-09
0, 13, 6, 8.657198513617459e-09
0, 13, 7, 7.320496653306918e-09
0, 13, 8, 1.639057245483855e-08
0, 13, 9, 4.3566767971015e-08
0, 13, 10, 2.078488492429642e-08
0, 13, 11, 1.850749420384545e-08
0, 13, 12, 1.079469758025198e-08
0, 13, 13, 1.293182450012864e-08
0, 13, 14, 1.38415146011539e-08
0, 13, 15, 4.233280392895722e-09
0, 13, 16, 1.615612355010398e-08
0, 13, 17, 2.6682315024118e-08
0, 13, 18, 2.320894765261983e-08
0, 13, 19, 7.768144349995509e-09
0, 13, 20, 7.422891190600467e-09
0, 13, 21, 1.734101395811649e-08
0, 13, 22, 1.621150502728597e-08
0, 13, 23, 1.337871591289286e-08
0, 13, 24, 1.401490479224776e-08
0, 13, 25, 4.637095596393692e-09
0, 13, 26, 9.507665765795537e-09
0, 13, 27, 1.640521141155205e-08
0, 13, 28, 1.495259205341881e-08
0, 13, 29, 4.78386130708941e-09
0, 13, 30, 1.313952147086184e-08
0, 13, 31, 1.333630361699534e-08
0, 13, 32, 1.112681413673045e-08
0, 13, 33, 8.95112783894092e-09
0, 13, 34, 3.005326476568371e-08
0, 13, 35, 1.826361817336419e-08
0, 13, 36, 4.331314418237753e-09
0, 13, 37, 4.349610893683575e-09
0, 13, 38, 1.116870240736034e-08
0, 13, 39, 6.133452412626639e-09
0, 13, 40, 3.085766309141036e-08
0, 13, 41, 1.70533862586808e-08
0, 13, 42, 5.63606805670247e-09
0, 13, 43, 6.560477494588213e-09
0, 13, 44, 1.630080781467313e-08
0, 13, 45, 1.389052695088822e-08
0, 13, 46, 8.537572426803308e-09
0, 13, 47, 1.052351805697072e-08
0, 13, 48, 1.672432325960926e-08
0, 13, 49, 5.503898226066894e-09
0, 14, 0, 1.281810568798392e-08
0, 14, 1, 1.008339634012145e-08
0, 14, 2, 6.260830964777142e-09
0, 14, 3, 2.476330074330235e-08
0, 14, 4, 1.952853523334852e-08
0, 14, 5, 1.589074649643862e-08
0, 14, 6, 1.415730821463512e-08
0, 14, 7, 1.69436766839226e-08
0, 14, 8, 1.362548918137918e-08
0, 14, 9, 2.285067601803803e-08
0, 14, 10, 8.347138091835404e-09
0, 14, 11, 1.678195715726361e-08
0, 14, 12, 8.850177479757804e-09
0, 14, 13, 1.229370649724615e-08
0, 14, 14, 9.324581995429071e-09
0, 14, 15, 1.931257820331211e-08
0, 14, 16, 9.946021783946435e-09
0, 14, 17, 1.303813057518255e-08
0, 14, 18, 1.044665953742197e-08
0, 14, 19, 3.80672293687212e-09
0, 14, 20, 1.771012847484599e-08
0, 14, 21, 2.954761946227791e-08
0, 14, 22, 2.226110495939793e-08
0, 14, 23, 1.770040469750711e-08
0, 14, 24, 7.160495751890039e-09
0, 14, 25, 2.330842363562624e-08
0, 14, 26, 2.241141494607746e-08
0, 14, 27, 1.628748158566395e-08
0, 14, 28, 1.294014762009965e-08
0, 14, 29, 1.026821561112001e-08
0, 14, 30, 1.423361606356366e-08
0, 14, 31, 1.459726473029832e-08
0, 14, 32, 3.70209889410944e-08
0, 14, 33, 1.879396904769237e-08
0, 14, 34, 1.769885749069999e-08
0, 14, 35, 1.859004150617238e-08
0, 14, 36, 2.907713358979436e-08
0, 14, 37, 1.441201735730147e-08
0, 14, 38, 9.858083238611925e-09
0, 14, 39, 2.727855274997637e-08
0, 14, 40, 2.734066484322284e-08
0, 14, 41, 2.357084083470795e-09
0, 14, 42, 9.579926185665499e-09
0, 14, 43, 1.099257040948487e-08
0, 14, 44, 7.200200435875104e-09
0, 14, 45, 1.111792080621399e-08
0, 14, 46, 1.205100019774363e-08
0, 14, 47, 1.17390293041808e-08
0, 14, 48, 1.139329697252833e-08
0, 14, 49, 5.743052255979819e-09
0, 15, 0, 9.083959362499172e-09
0, 15, 1, 1.805573823787654e-08
0, 15, 2, 1.180818109958182e-08
0, 15, 3, 1.131843507806707e-08
0, 15, 4, 1.286206963158065e-08
0, 15, 5, 1.041335195850479e-08
0, 15, 6, 2.308590296706825e-08
0, 15, 7, 9.855518179335832e-09
0, 15, 8, 2.247302433033838e-08
0, 15, 9, 2.020935774282862e-08
0, 15, 10, 2.080142813554176e-08
0, 15, 11, 7.519719957826965e-09
0, 15, 12, 1.584372810725654e-08
0, 15, 13, 2.008502164585479e-08
0, 15, 14, 2.00202485700629e-08
0, 15, 15, 4.438541623130732e-08
0, 15, 16, 1.773628355294932e-08
0, 15, 17, 2.477658433974739e-08
0, 15, 18, 1.999474008584912e-08
0, 15, 19, 2.346552641085964e-08
0, 15, 20, 8.492225589407099e-09
0, 15, 21, 1.834075824547199e-08
0, 15, 22, 2.654964781356739e-08
0, 15, 23, 2.595237269531481e-08
0, 15, 24, 1.222562051594878e-08
0, 15, 25, 1.917382519422972e-08
0, 15, 26, 1.695741680407536e-08
0, 15, 27, 5.045950324245041e-09
0, 15, 28, 2.904954143900795e-08
0, 15, 29, 1.650780312445477e-08
0, 15, 30, 3.024910100180023e-08
0, 15, 31, 3.720046137800637e-08
0, 15, 32, 1.787589098967146e-08
0, 15, 33, 1.397833671035187e-08
0, 15, 34, 2.670678433958074e-08
0, 15, 35, 1.144938721608924e-08
0, 15, 36, 1.238465152653134e-08
0, 15, 37, 1.21336665159788e-08
0, 15, 38, 9.987408233769202e-09
0, 15, 39, 2.880972616026156e-08
0, 15, 40, 2.781168539911505e-08
0, 15, 41, 9.547703960777199e-09
0, 15, 42, 2.179166358473594e-08
0, 15, 43, 3.184853269999621e-08
0, 15, 44, 1.086457146470821e-08
0, 15, 45, 1.975599062120637e-08
0, 15, 46, 1.290598561354273e-08
0, 15, 47, 2.814113386762074e-09
0, 15, 48, 2.699420420526621e-08
0, 15, 49, 5.902200506113786e-09
0, 16, 0, 1.338867061662086e-08
0, 16, 1, 2.549643163263227e-08
0, 16, 2, 2.163225865103868e-08
0, 16, 3, 1.502346158588352e-08
0, 16, 4, 4.494196126358929e-09
0, 16, 5, 1.091312640255637e-08
0, 16, 6, 1.709219255019434e-08
0, 16, 7, 2.455191605577056e-08
0, 16, 8, 5.762180954604901e-09
0, 16, 9, 1.138656813282068e-08
0, 16, 10, 2.296612144903065e-08
0, 16, 11, 2.123922193675298e-08
0, 16, 12, 1.529270932110194e-08
0, 16, 13, 1.556121453916148e-08
0, 16, 14, 3.972310835820281e-08
0, 16, 15, 2.871142079641231e-08
0, 16, 16, 1.289818829519618e-08
0, 16, 17, 3.21664259672616e-08
0, 16, 18, 3.169015272419529e-08
0, 16, 19, 1.773311808506151e-08
0, 16, 20, 1.373125524395391e-08
0, 16, 21, 4.432299505197079e-08
0, 16, 22, 2.856897474146081e-08
0, 16, 23, 1.486027212393992e-08
0, 16, 24, 6.939081753642995e-09
0, 16, 25, 1.044854514020699e-08
0, 16, 26, 1.683441297473109e-08
0, 16, 27, 2.024096801278574e-08
0, 16, 28, 1.405184324454467e-08
0, 16, 29, 1.279063699399785e-08
0, 16, 30, 7.474362462289719e-09
0, 16, 31, 1.316560460651317e-08
0, 16, 32, 1.268533189602294e-08
0, 16, 33, 9.974959525038685e-09
0, 16, 34, 1.066269028626721e-08
0, 16, 35, 2.433011303537569e-08
0, 16, 36, 1.409533556540055e-08
0, 16, 37, 1.448890252220281e-08
0, 16, 38, 1.911259062126192e-08
0, 16, 39, 4.207124604249657e-08
0, 16, 40, 3.528513303763248e-08
0, 16, 41, 6.236919425361975e-09
0, 16, 42, 5.898514565672031e-09
0, 16, 43, 2.481059269143771e-08
0, 16, 44, 2.139849364368729e-08
0, 16, 45, 1.441435237836686e-08
0, 16, 46, 9.794413280417302e-09
0, 16, 47, 1.079077271981532e-08
0, 16, 48, 1.966384033380564e-08
0, 16, 49, 1.131756022232366e-08
0, 17, 0, 4.392755048598929e-09
0, 17, 1, 1.406518723712225e-08
0, 17, 2, 1.897938517458897e-08
0, 17, 3, 2.343323757258986e-08
0, 17, 4, 8.495280034992447e-09
0, 17, 5, 1.636328583742852e-08
0, 17, 6, 9.774626441583223e-09
0, 17, 7, 1.31197364083846e-08
0, 17, 8, 3.062481113147442e-08
0, 17, 9, 1.932894022615983e-08
0, 17, 10, 3.007448867720086e-08
0, 17, 11, 2.788004138665201e-08
0, 17, 12, 2.96962010537527e-08
0, 17, 13, 2.183440450664875e-08
0, 17, 14, 2.094450390899283e-09
0, 17, 15, 2.117179143112935e-08
0, 17, 16, 1.551687667245005e-08
0, 17, 17, 2.120023800955551e-08
0, 17, 18, 2.008368760186841e-08
0, 17, 19, 2.791790976175434e-08
0, 17, 20, 4.962448585388302e-08
0, 17, 21, 1.619136469344085e-08
0, 17, 22, 1.323940779229815e-08
0, 17, 23, 6.397055773987859e-09
0, 17, 24, 4.082592397480767e-08
0, 17, 25, 1.144064221136887e-08
0, 17, 26, 1.282394190837977e-08
0, 17, 27, 2.13577102670115e-08
0, 17, 28, 1.951678463285589e-08
0, 17, 29, 1.425495543827537e-08
0, 17, 30, 3.296247186312939e-08
0, 17, 31, 8.588316724456035e-09
0, 17, 32, 1.632331603218518e-08
0, 17, 33, 1.769831392550714e-08
0, 17, 34, 2.810318555646063e-08
0, 17, 35, 4.73804782075149e-08
0, 17, 36, 2.077178429260584e-08
0, 17, 37, 1.965506335466216e-08
0, 17, 38, 5.712477602060062e-09
0, 17, 39, 7.363842868812753e-09
0, 17, 40, 1.751622491497073e-08
0, 17, 41, 3.242656987367809e-08
0, 17, 42, 1.919607761635689e-08
0, 17, 43, 1.404908633872992e-08
0, 17, 44, 3.098356415875969e-08
0, 17, 45, 1.226221790773252e-08
0, 17, 46, 2.593088410662858e-08
0, 17, 47, 8.712220278539462e-09
0, 17, 48, 6.65870114602285e-09
0, 17, 49, 1.135828586740217e-08
0, 18, 0, 1.667140736572037e-08
0, 18, 1, 1.114847414385167e-08
0, 18, 2, 1.667665827653764e-08
0, 18, 3, 6.080724812562721e-09
0, 18, 4, 3.052847219464638e-08
0, 18, 5, 1.837004504068318e-08
0, 18, 6, 1.275508143550041e-08
0, 18, 7, 8.526805927999703e-09
0, 18, 8, 3.15493124958266e-08
0, 18, 9, 1.636387025882868e-08
0, 18, 10, 2.614091876296243e-08
0, 18, 11, 2.194638781816138e-08
0, 18, 12, 2.634495466224962e-08
0, 18, 13, 2.680968336221667e-08
0, 18, 14, 1.079430145267679e-08
0, 18, 15, 1.815049088804699e-08
0, 18, 16, 1.092468693286719e-08
0, 18, 17, 1.862850318445908e-08
0, 18, 18, 1.916502334609049e-08
0, 18, 19, 3.001372661515234e-08
0, 18, 20, 1.202414079415348e-08
0, 18, 21, 2.565301038259804e-08
0, 18, 22, 3.896330014185878e-08
0, 18, 23, 3.270902837471112e-08
0, 18, 24, 1.97166283300021e-08
0, 18, 25, 1.888698797358757e-08
