# TOPAS Version: 3.7
# Parameter File: TestingDose3.txt
# Results for scorer TestingDose3_Water
# Scored in component: Water
# X in 50 bins of 0.1 cm
# Y in 50 bins of 0.1 cm
# Z in 25 bins of 0.1 cm
# DoseToMedium ( Gy ) : Sum   
0, 0, 0, 1.862035148292307e-08
0, 0, 1, 4.763647698524665e-09
0, 0, 2, 8.346683344484518e-09
0, 0, 3, 4.114926177578582e-09
0, 0, 4, 1.638255042735182e-08
0, 0, 5, 3.537250936602732e-09
0, 0, 6, 2.980099278460102e-09
0, 0, 7, 1.167721030981284e-08
0, 0, 8, 7.564211063071369e-11
0, 0, 9, 1.253185111238508e-08
0, 0, 10, 8.789376337858812e-09
0, 0, 11, 6.904288696318872e-09
0, 0, 12, 1.284639772336504e-08
0, 0, 13, 1.010800954048818e-08
0, 0, 14, 3.597007358635551e-09
0, 0, 15, 1.881412003967853e-08
0, 0, 16, 1.037811170334635e-08
0, 0, 17, 4.414967946786419e-09
0, 0, 18, 1.009757610859197e-08
0, 0, 19, 2.329895165686935e-09
0, 0, 20, 5.721928708624091e-09
0, 0, 21, 1.831456986067792e-09
0, 0, 22, 1.044388664439566e-08
0, 0, 23, 7.136194746237834e-09
0, 0, 24, 1.012707340208863e-08
0, 1, 0, 2.319863767752395e-08
0, 1, 1, 2.04423198368886e-08
0, 1, 2, 9.987812354950165e-09
0, 1, 3, 1.130979754293548e-08
0, 1, 4, 6.41693198577542e-10
0, 1, 5, 1.607063815356469e-08
0, 1, 6, 1.099933388815089e-08
0, 1, 7, 2.493619355448118e-08
0, 1, 8, 9.021725588809204e-09
0, 1, 9, 1.253599890560508e-08
0, 1, 10, 4.661518726578606e-09
0, 1, 11, 6.834651955500703e-09
0, 1, 12, 5.142613890285475e-09
0, 1, 13, 8.275656604439519e-09
0, 1, 14, 6.618765091559453e-09
0, 1, 15, 7.42205319426148e-09
0, 1, 16, 9.387325583531947e-09
0, 1, 17, 7.852154482179685e-09
0, 1, 18, 1.311540298587488e-08
0, 1, 19, 6.420270093343561e-09
0, 1, 20, 8.564198239469079e-09
0, 1, 21, 4.304983036718113e-09
0, 1, 22, 2.507376173355169e-08
0, 1, 23, 4.494708605307096e-09
0, 1, 24, 9.679557599895361e-09
0, 2, 0, 1.684488282194252e-08
0, 2, 1, 1.529878979056321e-08
0, 2, 2, 1.374342240012538e-08
0, 2, 3, 5.466527674968802e-09
0, 2, 4, 1.256721837705754e-08
0, 2, 5, 4.246726081902352e-09
0, 2, 6, 1.517572201237272e-08
0, 2, 7, 1.029122476126076e-08
0, 2, 8, 4.928893293509873e-09
0, 2, 9, 1.22798811119651e-08
0, 2, 10, 1.004893235290183e-08
0, 2, 11, 1.008636640875693e-08
0, 2, 12, 1.163872820342249e-08
0, 2, 13, 9.294470082465978e-09
0, 2, 14, 8.92529961049604e-09
0, 2, 15, 4.144750320733692e-09
0, 2, 16, 2.216850258918157e-09
0, 2, 17, 1.189475007379315e-08
0, 2, 18, 3.015745209111742e-09
0, 2, 19, 5.873701525160868e-09
0, 2, 20, 1.677324057425267e-08
0, 2, 21, 7.447437333496509e-09
0, 2, 22, 7.956690417643131e-09
0, 2, 23, 1.231352264596808e-08
0, 2, 24, 2.045934088812373e-09
0, 3, 0, 6.517654860260791e-09
0, 3, 1, 1.902174062706763e-08
0, 3, 2, 2.511375285507711e-08
0, 3, 3, 2.298399870426238e-08
0, 3, 4, 2.791772857335673e-08
0, 3, 5, 1.830303375527365e-08
0, 3, 6, 1.847270780785948e-08
0, 3, 7, 1.205492417000187e-08
0, 3, 8, 1.922185965952394e-08
0, 3, 9, 1.50116619135332e-09
0, 3, 10, 1.511036984425118e-08
0, 3, 11, 1.171425978441221e-08
0, 3, 12, 9.98000881935468e-09
0, 3, 13, 4.636097283849949e-09
0, 3, 14, 1.12156248732731e-08
0, 3, 15, 9.917701326855877e-09
0, 3, 16, 4.276548892789833e-09
0, 3, 17, 1.650172620770718e-08
0, 3, 18, 1.592614928824787e-08
0, 3, 19, 6.014357456507469e-09
0, 3, 20, 3.495236100548027e-09
0, 3, 21, 5.191642671320551e-09
0, 3, 22, 2.042359703580132e-08
0, 3, 23, 6.18021545051306e-09
0, 3, 24, 5.11481612619491e-09
0, 4, 0, 9.500612740964698e-09
0, 4, 1, 1.174930286396147e-08
0, 4, 2, 2.054568515319488e-09
0, 4, 3, 1.123492321397634e-08
0, 4, 4, 7.630889697907151e-09
0, 4, 5, 1.913575964351821e-08
0, 4, 6, 1.026604667941911e-08
0, 4, 7, 1.830005658121081e-08
0, 4, 8, 2.039745261583903e-08
0, 4, 9, 8.83878481516831e-09
0, 4, 10, 1.554047912577516e-08
0, 4, 11, 1.433484086987846e-08
0, 4, 12, 1.860783171991898e-08
0, 4, 13, 1.878960276258113e-08
0, 4, 14, 1.183464615195362e-08
0, 4, 15, 2.419529687713862e-09
0, 4, 16, 1.677512528885927e-08
0, 4, 17, 3.212998977986103e-09
0, 4, 18, 2.571138857376809e-09
0, 4, 19, 4.603353254140075e-09
0, 4, 20, 1.754553125010716e-08
0, 4, 21, 1.923107006973623e-08
0, 4, 22, 1.263243110116719e-08
0, 4, 23, 9.594606886764723e-09
0, 4, 24, 7.798652390533789e-09
0, 5, 0, 3.119070157708848e-08
0, 5, 1, 6.387512296868181e-09
0, 5, 2, 8.426007447326356e-09
0, 5, 3, 1.391866710775957e-08
0, 5, 4, 7.507218846569685e-09
0, 5, 5, 1.365080937176799e-08
0, 5, 6, 7.146961689130649e-09
0, 5, 7, 8.089372727226873e-09
0, 5, 8, 1.474358057862446e-08
0, 5, 9, 2.764790174580867e-08
0, 5, 10, 3.952993488098855e-09
0, 5, 11, 1.156390361245485e-08
0, 5, 12, 7.583920158538149e-09
0, 5, 13, 1.422949402751783e-08
0, 5, 14, 1.622328049677435e-08
0, 5, 15, 1.65231561766177e-09
0, 5, 16, 1.638558799754719e-08
0, 5, 17, 5.044741957505039e-09
0, 5, 18, 1.001616922735593e-08
0, 5, 19, 1.130825744155572e-08
0, 5, 20, 4.930674535330581e-09
0, 5, 21, 6.732998603098395e-10
0, 5, 22, 7.613274455309238e-09
0, 5, 23, 5.641194622540979e-09
0, 5, 24, 1.226041046464843e-08
0, 6, 0, 2.255045394861099e-08
0, 6, 1, 1.67776512682849e-08
0, 6, 2, 5.776204403673546e-09
0, 6, 3, 4.670418274344001e-09
0, 6, 4, 3.20993081004417e-08
0, 6, 5, 1.411847794230425e-08
0, 6, 6, 1.801266513723476e-08
0, 6, 7, 1.785319447833444e-08
0, 6, 8, 1.19237508755532e-08
0, 6, 9, 1.67746172508032e-08
0, 6, 10, 1.779677383240141e-08
0, 6, 11, 1.04977289083763e-08
0, 6, 12, 8.353385538839575e-09
0, 6, 13, 8.199810608289226e-09
0, 6, 14, 4.660228825059676e-08
0, 6, 15, 1.902490609495544e-08
0, 6, 16, 1.063467802708828e-08
0, 6, 17, 9.439210302275569e-09
0, 6, 18, 3.266040593530306e-08
0, 6, 19, 3.710829865610776e-09
0, 6, 20, 1.86665829460253e-08
0, 6, 21, 4.704402201127778e-09
0, 6, 22, 5.022757321171412e-09
0, 6, 23, 9.429927949611283e-09
0, 6, 24, 1.148875483636402e-08
0, 7, 0, 1.227179247109689e-08
0, 7, 1, 1.840415997378386e-08
0, 7, 2, 1.880604472148661e-08
0, 7, 3, 3.831391737207923e-08
0, 7, 4, 9.046662974299124e-09
0, 7, 5, 2.670046406194615e-08
0, 7, 6, 2.276399868605949e-08
0, 7, 7, 1.356144441189144e-08
0, 7, 8, 3.813680038433631e-08
0, 7, 9, 9.525474631288944e-09
0, 7, 10, 1.219008716191183e-08
0, 7, 11, 9.666592859502998e-09
0, 7, 12, 3.566041684166521e-09
0, 7, 13, 3.87099463594609e-09
0, 7, 14, 9.673392753484222e-09
0, 7, 15, 5.986787954270767e-09
0, 7, 16, 1.488546064187801e-09
0, 7, 17, 2.556767597639009e-08
0, 7, 18, 1.030598451023934e-08
0, 7, 19, 7.272257462886955e-09
0, 7, 20, 1.402606653044813e-08
0, 7, 21, 1.188899290127665e-08
0, 7, 22, 1.038290253774221e-08
0, 7, 23, 1.022322315691326e-08
0, 7, 24, 2.574287449874646e-09
0, 8, 0, 2.061137749365116e-08
0, 8, 1, 1.554858108931967e-08
0, 8, 2, 5.008677916862325e-09
0, 8, 3, 1.182854880710238e-08
0, 8, 4, 1.888835043928339e-08
0, 8, 5, 7.504204369013223e-09
0, 8, 6, 1.522119674746136e-08
0, 8, 7, 1.428460727481706e-08
0, 8, 8, 1.415963613027316e-08
0, 8, 9, 2.322361858375643e-08
0, 8, 10, 6.458533707842662e-09
0, 8, 11, 1.424834383811913e-08
0, 8, 12, 1.212734446198738e-08
0, 8, 13, 4.700779765443031e-09
0, 8, 14, 2.003948651463361e-08
0, 8, 15, 1.436704621937679e-08
0, 8, 16, 1.553148010202676e-08
0, 8, 17, 0
0, 8, 18, 1.025576956692476e-08
0, 8, 19, 5.100040834093988e-09
0, 8, 20, 1.621333822754423e-08
0, 8, 21, 1.27198918065119e-08
0, 8, 22, 1.530135307348246e-08
0, 8, 23, 1.538650096222227e-08
0, 8, 24, 2.189384451511955e-09
0, 9, 0, 1.943370087076346e-08
0, 9, 1, 8.938452644713379e-09
0, 9, 2, 3.068373288783732e-08
0, 9, 3, 1.884065170543181e-08
0, 9, 4, 1.345681344133709e-08
0, 9, 5, 1.811358885106529e-08
0, 9, 6, 1.148667472250509e-08
0, 9, 7, 1.590648324167887e-08
0, 9, 8, 1.359702395120621e-08
0, 9, 9, 2.229704421097267e-08
0, 9, 10, 9.174693005320478e-09
0, 9, 11, 1.975189434233471e-08
0, 9, 12, 1.479290734351935e-08
0, 9, 13, 2.067466553512531e-08
0, 9, 14, 9.901324204975026e-09
0, 9, 15, 9.734875128231124e-09
0, 9, 16, 1.392174731051909e-08
0, 9, 17, 2.473407612058054e-08
0, 9, 18, 1.181550324247382e-08
0, 9, 19, 1.509998703852489e-08
0, 9, 20, 1.312045139201246e-08
0, 9, 21, 2.324287073918185e-08
0, 9, 22, 7.462129580915189e-09
0, 9, 23, 9.549259161190093e-09
0, 9, 24, 7.72063390996891e-09
0, 10, 0, 1.633577895177041e-08
0, 10, 1, 9.529872890823299e-09
0, 10, 2, 2.820801725533784e-08
0, 10, 3, 2.002432886172301e-08
0, 10, 4, 2.202274096418932e-08
0, 10, 5, 2.326277837028101e-09
0, 10, 6, 1.758910350702081e-08
0, 10, 7, 7.269194135517409e-09
0, 10, 8, 1.902731661118651e-08
0, 10, 9, 2.207776717000343e-08
0, 10, 10, 1.596859178221166e-08
0, 10, 11, 7.541543389777416e-09
0, 10, 12, 1.204717126057631e-08
0, 10, 13, 1.594865572940307e-08
0, 10, 14, 1.347131206586027e-08
0, 10, 15, 6.180799871913223e-09
0, 10, 16, 1.186616582771194e-08
0, 10, 17, 1.234562940766182e-08
0, 10, 18, 6.397813390179863e-09
0, 10, 19, 7.399654222695062e-09
0, 10, 20, 4.405990949862826e-08
0, 10, 21, 9.807349599100235e-09
0, 10, 22, 3.613607413299746e-09
0, 10, 23, 4.163037914395318e-09
0, 10, 24, 1.383034309299092e-08
0, 11, 0, 2.203408477896573e-08
0, 11, 1, 1.019130735357976e-08
0, 11, 2, 3.748027310734869e-08
0, 11, 3, 1.837398500015297e-08
0, 11, 4, 2.152727063275961e-08
0, 11, 5, 1.128169113684407e-08
0, 11, 6, 1.289001172466442e-08
0, 11, 7, 8.118891337005607e-09
0, 11, 8, 1.384086179001542e-08
0, 11, 9, 2.306176938304816e-08
0, 11, 10, 1.545226524513055e-08
0, 11, 11, 2.193706372111137e-08
0, 11, 12, 9.650674925865133e-09
0, 11, 13, 2.223328898764976e-08
0, 11, 14, 1.172243102587345e-08
0, 11, 15, 2.148260236367605e-09
0, 11, 16, 4.893872418421097e-09
0, 11, 17, 9.648585930221998e-09
0, 11, 18, 9.28993237891973e-09
0, 11, 19, 1.115776804283541e-08
0, 11, 20, 1.654268544371007e-08
0, 11, 21, 1.588492715143275e-08
0, 11, 22, 1.313727882035209e-08
0, 11, 23, 1.323469600578164e-08
0, 11, 24, 4.445287249410512e-09
0, 12, 0, 1.134354921106251e-08
0, 12, 1, 4.579987944453023e-09
0, 12, 2, 1.688645312469816e-08
0, 12, 3, 1.762248014181012e-09
0, 12, 4, 1.30182504776144e-08
0, 12, 5, 1.726764864429242e-08
0, 12, 6, 1.645359226642995e-08
0, 12, 7, 1.068221333611064e-08
0, 12, 8, 2.524201114795233e-08
0, 12, 9, 1.158789242339253e-08
0, 12, 10, 1.081020517545994e-08
0, 12, 11, 9.775234843800717e-09
0, 12, 12, 1.761611834183441e-08
0, 12, 13, 9.729420824555746e-09
0, 12, 14, 5.095077693084704e-09
0, 12, 15, 5.411483705586306e-09
0, 12, 16, 1.239014313370035e-08
0, 12, 17, 2.37906139233246e-08
0, 12, 18, 1.158724227678931e-08
0, 12, 19, 1.765449297863597e-08
0, 12, 20, 8.017191355236264e-09
0, 12, 21, 6.010793196509212e-09
0, 12, 22, 1.103230395926857e-08
0, 12, 23, 1.273838723392373e-08
0, 12, 24, 1.517059189382053e-08
0, 13, 0, 2.46903013589872e-08
0, 13, 1, 4.433746703114139e-09
0, 13, 2, 2.189592329671086e-08
0, 13, 3, 2.17858726614395e-08
0, 13, 4, 3.285745009407037e-08
0, 13, 5, 1.036668972886901e-08
0, 13, 6, 1.947836558713334e-08
0, 13, 7, 3.087776434540501e-08
0, 13, 8, 2.759724893053317e-08
0, 13, 9, 1.82252151148532e-08
0, 13, 10, 3.432635731215328e-09
0, 13, 11, 1.230181911893169e-08
0, 13, 12, 1.478083877515246e-08
0, 13, 13, 6.608596336832306e-09
0, 13, 14, 1.869926080644291e-08
0, 13, 15, 1.262933224666085e-08
0, 13, 16, 1.785328684889009e-08
0, 13, 17, 1.10799645014481e-08
0, 13, 18, 2.474439142474694e-08
0, 13, 19, 3.176625540390887e-08
0, 13, 20, 5.965252736217508e-09
0, 13, 21, 1.273989802541564e-08
0, 13, 22, 2.146990496498802e-08
0, 13, 23, 9.074501150507785e-09
0, 13, 24, 2.643796470636062e-08
0, 14, 0, 3.065312270678078e-08
0, 14, 1, 2.177606717168601e-08
0, 14, 2, 9.605535034040713e-09
0, 14, 3, 1.38575915187289e-08
0, 14, 4, 9.35361033072013e-09
0, 14, 5, 1.889146439282285e-08
0, 14, 6, 1.708417052270761e-08
0, 14, 7, 2.00405860795172e-08
0, 14, 8, 8.347072366632347e-09
0, 14, 9, 8.861050559971773e-09
0, 14, 10, 1.897310042409117e-08
0, 14, 11, 2.603965931768926e-08
0, 14, 12, 2.725393244418228e-08
0, 14, 13, 2.391335840457032e-08
0, 14, 14, 2.573957935680937e-08
0, 14, 15, 1.343048161572824e-08
0, 14, 16, 1.854709275050936e-08
0, 14, 17, 1.605825161732355e-08
0, 14, 18, 1.428190987695643e-08
0, 14, 19, 1.122985882062721e-08
0, 14, 20, 2.587031566747555e-08
0, 14, 21, 2.168149926262686e-08
0, 14, 22, 1.055660181492613e-08
0, 14, 23, 6.92322199569162e-09
0, 14, 24, 1.041153296910124e-08
0, 15, 0, 1.322366394163055e-08
0, 15, 1, 1.184670850307157e-08
0, 15, 2, 9.099966113979008e-09
0, 15, 3, 7.294246540112681e-09
0, 15, 4, 2.887512451366092e-08
0, 15, 5, 1.310652297803472e-08
0, 15, 6, 4.450703805503053e-09
0, 15, 7, 2.626480011258536e-08
0, 15, 8, 2.161739409700658e-08
0, 15, 9, 3.114968549766672e-08
0, 15, 10, 4.501032790926729e-08
0, 15, 11, 1.589640952204263e-08
0, 15, 12, 2.256230935415715e-08
0, 15, 13, 1.474710042970173e-08
0, 15, 14, 5.165557315223168e-09
0, 15, 15, 9.263055211761184e-09
0, 15, 16, 2.889300354524948e-08
0, 15, 17, 7.526865353213452e-09
0, 15, 18, 1.535786964268482e-08
0, 15, 19, 2.813672850265903e-09
0, 15, 20, 1.435371110858341e-08
0, 15, 21, 1.074840216830353e-08
0, 15, 22, 6.874989466609804e-09
0, 15, 23, 9.342735474149322e-09
0, 15, 24, 1.765415724719333e-08
0, 16, 0, 1.996389009661925e-08
0, 16, 1, 4.351645088718215e-08
0, 16, 2, 4.115702267881716e-08
0, 16, 3, 1.943896954514912e-08
0, 16, 4, 2.649048624903116e-08
0, 16, 5, 1.60994613196408e-08
0, 16, 6, 1.894605716756814e-08
0, 16, 7, 2.497178108740172e-08
0, 16, 8, 1.826473550181618e-08
0, 16, 9, 3.308914742206071e-08
0, 16, 10, 2.254289199754567e-08
0, 16, 11, 2.100754592504472e-08
0, 16, 12, 4.180923607322029e-09
0, 16, 13, 1.714491659754458e-08
0, 16, 14, 7.74782460410961e-09
0, 16, 15, 1.648889735861303e-08
0, 16, 16, 2.352449612885721e-08
0, 16, 17, 1.437390828584739e-08
0, 16, 18, 1.011405270645582e-08
0, 16, 19, 1.675772409726051e-08
0, 16, 20, 1.708056807103731e-08
0, 16, 21, 5.041118189552662e-09
0, 16, 22, 1.684473360796801e-08
0, 16, 23, 2.039194413328005e-08
0, 16, 24, 2.375926300146602e-08
0, 17, 0, 1.978450114847874e-08
0, 17, 1, 2.501150753175807e-08
0, 17, 2, 4.237782391669498e-08
0, 17, 3, 1.111341951798295e-08
0, 17, 4, 2.961592215910969e-08
0, 17, 5, 2.6690710086541e-08
0, 17, 6, 1.44112526356821e-08
0, 17, 7, 1.42370621958321e-08
0, 17, 8, 1.848323094577609e-08
0, 17, 9, 2.510316221560061e-08
0, 17, 10, 4.344599702221785e-08
0, 17, 11, 1.047843323220832e-08
0, 17, 12, 1.616568745532732e-08
0, 17, 13, 1.705623198233752e-08
0, 17, 14, 1.715055653050968e-08
0, 17, 15, 3.60961394108017e-08
0, 17, 16, 1.579253527950186e-08
0, 17, 17, 1.403928973076063e-08
0, 17, 18, 3.285688521259544e-08
0, 17, 19, 1.350022671431361e-08
0, 17, 20, 7.618310426948938e-09
0, 17, 21, 1.145371353317159e-08
0, 17, 22, 6.128546115036215e-09
0, 17, 23, 7.092070930525551e-09
0, 17, 24, 3.597254050191623e-08
0, 18, 0, 2.115088548748645e-08
0, 18, 1, 2.785693986595561e-08
0, 18, 2, 6.881525571600378e-09
0, 18, 3, 1.449942566011941e-08
0, 18, 4, 2.58173251665994e-08
0, 18, 5, 1.814910532971226e-08
0, 18, 6, 1.851277353637215e-08
0, 18, 7, 1.257140791466327e-08
0, 18, 8, 1.622523093658401e-08
0, 18, 9, 2.052610170721891e-08
0, 18, 10, 1.324311238448672e-08
0, 18, 11, 1.713313402262884e-08
0, 18, 12, 1.964134810350515e-08
0, 18, 13, 1.775898716971369e-08
0, 18, 14, 1.229755142162503e-08
0, 18, 15, 3.356030475742955e-08
0, 18, 16, 2.527006692787381e-08
0, 18, 17, 3.042952201326443e-08
0, 18, 18, 5.254884083427669e-09
0, 18, 19, 2.748579319700184e-08
0, 18, 20, 1.329148524575885e-08
0, 18, 21, 9.151430724330112e-09
0, 18, 22, 5.816081838361242e-09
0, 18, 23, 1.840595942326217e-08
0, 18, 24, 1.95999128038693e-08
0, 19, 0, 7.262674017738391e-09
0, 19, 1, 1.491194545621966e-08
0, 19, 2, 1.720184528153368e-08
0, 19, 3, 2.516106079042402e-08
0, 19, 4, 1.446427599915978e-08
0, 19, 5, 2.287443656712185e-08
0, 19, 6, 2.537054477613765e-08
0, 19, 7, 1.756026613008999e-08
0, 19, 8, 1.962214923878491e-08
0, 19, 9, 2.265861631656207e-08
0, 19, 10, 2.200441606703407e-08
0, 19, 11, 1.058027265798955e-08
0, 19, 12, 2.959381717460019e-08
0, 19, 13, 2.724077319271601e-08
0, 19, 14, 1.363634005713266e-08
0, 19, 15, 1.369815105789485e-08
0, 19, 16, 1.611545208390908e-08
0, 19, 17, 2.606849136554956e-08
0, 19, 18, 1.22726451223798e-08
0, 19, 19, 1.444657993232568e-08
0, 19, 20, 2.039305835310756e-09
0, 19, 21, 1.768112944944278e-08
0, 19, 22, 1.166200735980283e-08
0, 19, 23, 2.553920097625451e-08
0, 19, 24, 1.373661273618154e-08
0, 20, 0, 2.569571577737406e-08
0, 20, 1, 2.801020748677274e-08
0, 20, 2, 2.322477499205888e-08
0, 20, 3, 1.909372215891381e-08
0, 20, 4, 4.005026355002883e-08
0, 20, 5, 3.86685989894886e-08
0, 20, 6, 3.204188203653757e-08
0, 20, 7, 3.96792358969833e-08
0, 20, 8, 1.894052736872709e-08
0, 20, 9, 3.22866355872975e-08
0, 20, 10, 1.932377458047085e-08
0, 20, 11, 1.726122889067483e-08
0, 20, 12, 1.676686522955606e-08
0, 20, 13, 2.284891387205334e-08
0, 20, 14, 1.386448111873051e-08
0, 20, 15, 2.006767729767489e-08
0, 20, 16, 9.807351375457074e-09
0, 20, 17, 7.69563612834645e-09
0, 20, 18, 1.136001070989323e-08
0, 20, 19, 5.175814266067391e-08
0, 20, 20, 1.804975013897092e-08
0, 20, 21, 2.789128927815909e-08
0, 20, 22, 2.447145774908677e-08
0, 20, 23, 1.310544384125478e-08
0, 20, 24, 2.533328924414491e-08
0, 21, 0, 3.958617966759448e-08
0, 21, 1, 9.261944100558139e-09
0, 21, 2, 3.701731543515052e-08
0, 21, 3, 2.623592898487459e-08
0, 21, 4, 3.815288707187392e-08
0, 21, 5, 3.007068727356454e-08
0, 21, 6, 1.572661645354856e-08
0, 21, 7, 2.136371968219919e-08
0, 21, 8, 3.307503959604219e-08
0, 21, 9, 5.073760789287007e-08
0, 21, 10, 1.909221047924348e-08
0, 21, 11, 1.055754594858627e-08
0, 21, 12, 1.334758081839027e-08
0, 21, 13, 1.789682890773747e-08
0, 21, 14, 6.084971637676517e-09
0, 21, 15, 2.156856560020515e-08
0, 21, 16, 6.677057129422792e-09
0, 21, 17, 2.292678047410845e-08
0, 21, 18, 1.412693428903822e-08
0, 21, 19, 1.389604253887455e-08
0, 21, 20, 3.34935634782596e-08
0, 21, 21, 3.631519263080918e-08
0, 21, 22, 1.405638272444776e-08
0, 21, 23, 2.670962828688062e-08
0, 21, 24, 9.668745803992351e-09
0, 22, 0, 4.057145375213622e-08
0, 22, 1, 2.949546384911628e-08
0, 22, 2, 1.629637225164515e-08
0, 22, 3, 4.435096911947767e-08
0, 22, 4, 5.347346032635869e-08
0, 22, 5, 1.058652010499372e-08
0, 22, 6, 1.421061934792078e-08
0, 22, 7, 9.205693096703271e-09
0, 22, 8, 3.178475438403439e-08
0, 22, 9, 3.536644044288551e-08
0, 22, 10, 1.163942631166037e-08
0, 22, 11, 1.504624158599199e-08
0, 22, 12, 2.025098133628944e-08
0, 22, 13, 1.829916485007743e-08
0, 22, 14, 1.695847551275165e-08
0, 22, 15, 1.814713357362052e-08
0, 22, 16, 8.020826669508097e-09
0, 22, 17, 9.441664339249201e-09
0, 22, 18, 1.195844312462668e-08
0, 22, 19, 2.129003462414403e-08
0, 22, 20, 2.269542065391761e-08
0, 22, 21, 2.566860501929114e-08
0, 22, 22, 2.285263001056137e-08
0, 22, 23, 1.653090642150801e-08
0, 22, 24, 7.187252182294657e-11
0, 23, 0, 1.378544567387507e-08
0, 23, 1, 3.409768467577123e-08
0, 23, 2, 2.304620672077817e-08
0, 23, 3, 1.954571793305604e-08
0, 23, 4, 1.819767625477198e-08
0, 23, 5, 3.380521107487766e-08
0, 23, 6, 2.303801238667802e-08
0, 23, 7, 2.685998801155165e-08
0, 23, 8, 2.02328145348929e-08
0, 23, 9, 2.586727099185282e-08
0, 23, 10, 1.557796203144335e-08
0, 23, 11, 2.252461683838192e-08
0, 23, 12, 2.528579834404354e-08
0, 23, 13, 1.874760791054086e-08
0, 23, 14, 1.594252729830714e-08
0, 23, 15, 1.281206429837312e-08
0, 23, 16, 1.792479764617383e-08
0, 23, 17, 1.288053130821254e-08
0, 23, 18, 1.074010569368511e-08
0, 23, 19, 1.192914922398813e-08
0, 23, 20, 6.756068149371686e-09
0, 23, 21, 1.434746543793608e-08
0, 23, 22, 8.808381579683555e-09
0, 23, 23, 1.310804353948924e-09
0, 23, 24, 1.319853204506671e-08
0, 24, 0, 4.197306679998292e-08
0, 24, 1, 2.306760471526559e-08
0, 24, 2, 1.343479016924221e-08
0, 24, 3, 3.343653176557382e-08
0, 24, 4, 3.225501998826985e-08
0, 24, 5, 4.09861620198626e-08
0, 24, 6, 1.667703841690127e-08
0, 24, 7, 2.976353741246385e-08
0, 24, 8, 1.895387136130466e-08
0, 24, 9, 3.642871249098789e-08
0, 24, 10, 2.393715092807724e-08
0, 24, 11, 1.721205045157603e-08
0, 24, 12, 2.656382669385948e-08
0, 24, 13, 4.75972328217722e-08
0, 24, 14, 2.36444712697903e-08
0, 24, 15, 2.539575305604558e-08
0, 24, 16, 1.576018426874271e-08
0, 24, 17, 1.804125204785123e-08
0, 24, 18, 5.822534454580364e-09
0, 24, 19, 3.635632594978233e-08
0, 24, 20, 1.235236624097524e-08
0, 24, 21, 3.162711337267865e-08
0, 24, 22, 1.783400627175524e-08
0, 24, 23, 8.683340269044493e-09
0, 24, 24, 7.651646427575542e-09
0, 25, 0, 4.513617568591144e-08
0, 25, 1, 2.687515809896013e-08
0, 25, 2, 2.665228215903426e-08
0, 25, 3, 2.099169904568043e-08
0, 25, 4, 2.231291951204639e-08
0, 25, 5, 1.019138551328069e-08
0, 25, 6, 2.918074670787973e-08
0, 25, 7, 3.178020691052552e-08
0, 25, 8, 2.548207689301307e-08
0, 25, 9, 2.573610480283151e-08
0, 25, 10, 1.282949035896763e-08
0, 25, 11, 1.055442133690576e-08
0, 25, 12, 1.654392534078397e-08
0, 25, 13, 2.464756043707439e-08
0, 25, 14, 4.231615235994468e-08
0, 25, 15, 2.617046490627217e-08
0, 25, 16, 2.286276590268699e-08
0, 25, 17, 3.823235772415501e-08
0, 25, 18, 6.227999449492927e-09
0, 25, 19, 1.462161680620966e-08
0, 25, 20, 1.194446674901428e-08
0, 25, 21, 1.180281206103473e-08
0, 25, 22, 1.175238395489941e-08
0, 25, 23, 5.722251117390442e-09
0, 25, 24, 1.348692979519228e-08
0, 26, 0, 1.632920287875095e-08
0, 26, 1, 1.569373075938074e-08
0, 26, 2, 1.784367320567526e-08
0, 26, 3, 1.429762797044987e-08
0, 26, 4, 1.448771946854777e-08
0, 26, 5, 2.223276673873897e-08
0, 26, 6, 3.429904182894461e-08
0, 26, 7, 5.100808309066451e-08
0, 26, 8, 4.130741970698182e-08
0, 26, 9, 2.899967199709863e-08
0, 26, 10, 2.899174234016755e-08
0, 26, 11, 2.657886710721868e-08
0, 26, 12, 2.962515033289037e-08
0, 26, 13, 1.811847560873048e-08
0, 26, 14, 1.926594705992102e-08
0, 26, 15, 2.075736205142675e-08
0, 26, 16, 1.517950209972696e-08
0, 26, 17, 1.64094249299751e-08
0, 26, 18, 1.236098157164633e-08
0, 26, 19, 1.257900539286538e-08
0, 26, 20, 7.615445163366985e-09
0, 26, 21, 1.238720237495272e-08
0, 26, 22, 3.320207042634138e-08
0, 26, 23, 1.230324464529531e-08
0, 26, 24, 3.502065304417101e-09
0, 27, 0, 1.069743404968904e-08
0, 27, 1, 7.570038818016656e-09
0, 27, 2, 2.085382178051987e-08
0, 27, 3, 1.188262732654266e-08
0, 27, 4, 7.983891769924867e-09
0, 27, 5, 3.228051426162892e-08
0, 27, 6, 1.751665124061219e-08
0, 27, 7, 2.219053918395275e-08
0, 27, 8, 2.752361361046951e-08
0, 27, 9, 5.416187320861354e-08
0, 27, 10, 2.882017824390459e-08
0, 27, 11, 1.803411286971368e-08
0, 27, 12, 1.76155499076458e-08
0, 27, 13, 2.30401351331011e-08
0, 27, 14, 2.216151173684011e-08
0, 27, 15, 3.268501558295611e-08
0, 27, 16, 2.367629114985448e-08
0, 27, 17, 1.251021863879487e-08
0, 27, 18, 1.796694526490228e-08
0, 27, 19, 1.526903581350325e-08
0, 27, 20, 9.348521956553668e-09
0, 27, 21, 9.623144059389688e-09
0, 27, 22, 3.032777229350359e-08
0, 27, 23, 1.958643203181509e-08
0, 27, 24, 1.380249603499806e-08
0, 28, 0, 3.241810730969519e-08
0, 28, 1, 1.597442711442909e-08
0, 28, 2, 2.296144785418619e-08
0, 28, 3, 1.153165385403554e-08
0, 28, 4, 8.403949536273103e-09
0, 28, 5, 2.699314727294677e-08
0, 28, 6, 2.146288480275871e-08
0, 28, 7, 2.370655138861366e-08
0, 28, 8, 2.492447848112533e-08
0, 28, 9, 5.108262257635943e-08
0, 28, 10, 1.847864083970308e-08
0, 28, 11, 1.240992109075023e-08
0, 28, 12, 3.019605543386206e-08
0, 28, 13, 2.108294694380675e-08
0, 28, 14, 2.548751254494164e-08
0, 28, 15, 1.01366932625524e-08
0, 28, 16, 1.902575341716783e-08
0, 28, 17, 1.409208039149235e-08
0, 28, 18, 7.693490289284455e-09
0, 28, 19, 6.329615498401608e-09
0, 28, 20, 1.193662235721149e-08
0, 28, 21, 1.892641776635173e-08
0, 28, 22, 7.303048832341119e-09
0, 28, 23, 4.560610555870426e-09
0, 28, 24, 1.14418972074759e-08
0, 29, 0, 1.121329340492139e-08
0, 29, 1, 1.58228612434641e-08
0, 29, 2, 4.462149760797729e-08
0, 29, 3, 2.101092100303958e-08
0, 29, 4, 2.092068207559805e-08
0, 29, 5, 6.792935991484228e-09
0, 29, 6, 1.985828212980323e-08
0, 29, 7, 1.031280927321632e-08
0, 29, 8, 3.092818090522087e-08
0, 29, 9, 3.096839407135121e-08
0, 29, 10, 2.806516086195643e-08
0, 29, 11, 6.104035499276961e-09
0, 29, 12, 2.908183027727773e-08
0, 29, 13, 1.842599139934009e-08
0, 29, 14, 1.763104329199905e-08
0, 29, 15, 2.991068015489873e-08
0, 29, 16, 5.769038136094196e-09
0, 29, 17, 2.213920424765092e-08
0, 29, 18, 5.770366851010067e-09
0, 29, 19, 2.038087743017059e-08
0, 29, 20, 3.218213251443558e-08
0, 29, 21, 8.893793257414018e-09
0, 29, 22, 1.016732653624786e-08
0, 29, 23, 1.558749396224357e-08
0, 29, 24, 1.86184365702502e-08
0, 30, 0, 1.345581335243651e-08
0, 30, 1, 3.790728442254476e-08
0, 30, 2, 1.45457317302089e-08
0, 30, 3, 2.11832045238225e-08
0, 30, 4, 2.212254734956787e-08
0, 30, 5, 1.738967192466134e-08
0, 30, 6, 2.044475699847226e-08
0, 30, 7, 2.21205471717667e-08
0, 30, 8, 2.69991762280597e-08
0, 30, 9, 9.780539045323167e-09
0, 30, 10, 1.725135057029092e-08
0, 30, 11, 1.364393664715635e-08
0, 30, 12, 3.498918488276104e-08
0, 30, 13, 1.787952363940803e-08
0, 30, 14, 1.120262105303027e-08
0, 30, 15, 3.312987573167447e-08
0, 30, 16, 1.295514628907313e-08
0, 30, 17, 1.927733883633209e-08
0, 30, 18, 1.505439684024168e-08
0, 30, 19, 4.771961936711477e-09
0, 30, 20, 5.444989348291074e-09
0, 30, 21, 1.183179243469112e-08
0, 30, 22, 1.231160240422469e-08
0, 30, 23, 8.666739326201878e-09
0, 30, 24, 1.539653915472172e-08
0, 31, 0, 1.312919284401914e-08
0, 31, 1, 1.481581435314183e-08
0, 31, 2, 2.389328024321458e-08
0, 31, 3, 4.745577708575865e-09
0, 31, 4, 2.617808192439952e-08
0, 31, 5, 2.119518249799057e-08
0, 31, 6, 1.685037176457627e-08
0, 31, 7, 2.513638008849739e-08
0, 31, 8, 1.288749551520141e-08
0, 31, 9, 1.105604141571348e-08
0, 31, 10, 1.308272512545727e-08
0, 31, 11, 1.910854230402492e-08
0, 31, 12, 3.199162534883726e-08
0, 31, 13, 2.669526288912039e-08
0, 31, 14, 9.580708670853255e-09
0, 31, 15, 1.921571346485962e-08
0, 31, 16, 9.512522325394457e-09
0, 31, 17, 2.53466971855687e-08
0, 31, 18, 8.484569491429284e-09
0, 31, 19, 1.796092874428723e-08
0, 31, 20, 7.719902939129497e-09
0, 31, 21, 1.527317117222537e-08
0, 31, 22, 2.201343107799403e-08
0, 31, 23, 7.613309094267606e-09
0, 31, 24, 7.34382954448165e-09
0, 32, 0, 9.960057667512956e-09
0, 32, 1, 1.060380494521951e-08
0, 32, 2, 2.546399713310166e-08
0, 32, 3, 3.051309960255821e-08
0, 32, 4, 2.430093104521802e-08
0, 32, 5, 9.485138896536682e-09
0, 32, 6, 1.566571228295288e-08
0, 32, 7, 1.607435784478639e-08
0, 32, 8, 1.125547299807295e-08
0, 32, 9, 2.289472789129832e-08
0, 32, 10, 2.110700769719642e-08
0, 32, 11, 5.416196824370445e-09
0, 32, 12, 2.127309706168035e-08
0, 32, 13, 1.894653500755794e-08
0, 32, 14, 2.151005951134266e-08
0, 32, 15, 4.22028278990183e-08
0, 32, 16, 3.401268600100593e-08
0, 32, 17, 1.261791293671877e-08
0, 32, 18, 1.15354525931366e-08
0, 32, 19, 1.379220293529215e-08
0, 32, 20, 5.968075367235315e-09
0, 32, 21, 1.396644044859841e-08
0, 32, 22, 2.01899030827235e-08
0, 32, 23, 1.236731517195722e-08
0, 32, 24, 6.98920965547245e-09
0, 33, 0, 1.442537556073376e-08
0, 33, 1, 1.671485350129842e-08
0, 33, 2, 2.610206628617107e-08
0, 33, 3, 1.311204567144841e-08
0, 33, 4, 2.59109214084674e-08
0, 33, 5, 1.854102649190281e-08
0, 33, 6, 3.103783896563073e-08
0, 33, 7, 6.123279661096603e-09
0, 33, 8, 1.547140016100457e-08
0, 33, 9, 2.457446335313307e-08
0, 33, 10, 2.922604025457076e-08
0, 33, 11, 1.499709156860263e-08
0, 33, 12, 9.187438365643175e-09
0, 33, 13, 1.832183116334818e-08
0, 33, 14, 3.25726858818598e-08
0, 33, 15, 1.013022998819224e-08
0, 33, 16, 1.373375635438379e-08
0, 33, 17, 1.775785207769331e-08
0, 33, 18, 1.527248727484221e-08
0, 33, 19, 1.641569902233186e-08
0, 33, 20, 9.989834737211822e-09
0, 33, 21, 1.823680584323029e-08
0, 33, 22, 6.557189902167693e-09
0, 33, 23, 1.577988939516217e-08
0, 33, 24, 2.038304813822833e-08
0, 34, 0, 2.157353229392811e-08
0, 34, 1, 1.893811862885286e-08
0, 34, 2, 2.181870151218845e-08
0, 34, 3, 3.097776257732221e-08
0, 34, 4, 3.292189632020381e-08
0, 34, 5, 8.793862527056717e-09
0, 34, 6, 8.022633224413767e-09
0, 34, 7, 2.276646782206626e-08
0, 34, 8, 6.140634667417544e-09
0, 34, 9, 2.567469792325028e-08
0, 34, 10, 1.421457973549423e-08
0, 34, 11, 1.704366958676928e-08
0, 34, 12, 2.222158279607811e-08
0, 34, 13, 4.859319169270293e-09
0, 34, 14, 1.842205055169188e-09
0, 34, 15, 1.729063825450794e-08
0, 34, 16, 1.602326449301472e-08
0, 34, 17, 5.782777368068537e-09
0, 34, 18, 8.447455179805274e-09
0, 34, 19, 1.097105162273238e-08
0, 34, 20, 2.707552226866028e-08
0, 34, 21, 9.719216542691811e-09
0, 34, 22, 2.647192154370259e-08
0, 34, 23, 3.015205507495011e-08
0, 34, 24, 6.438344080095249e-09
0, 35, 0, 2.648378227831927e-08
0, 35, 1, 2.556731715230853e-08
0, 35, 2, 2.57521186597387e-08
0, 35, 3, 1.447066200199743e-08
0, 35, 4, 1.622105827436826e-08
0, 35, 5, 9.317788318696785e-09
0, 35, 6, 3.629731537557745e-08
0, 35, 7, 7.851825856164396e-09
0, 35, 8, 1.847606156957227e-08
0, 35, 9, 1.401940430412196e-08
0, 35, 10, 2.069510429691945e-08
0, 35, 11, 1.778829172849328e-08
0, 35, 12, 2.166750867615974e-08
0, 35, 13, 1.432932350553529e-08
0, 35, 14, 3.388240443769064e-08
0, 35, 15, 2.231855766865465e-08
0, 35, 16, 1.162907725671403e-08
0, 35, 17, 8.361281444990709e-09
0, 35, 18, 8.615948843271326e-09
0, 35, 19, 1.134360871901663e-08
0, 35, 20, 1.52370098760457e-08
0, 35, 21, 1.773694080497989e-08
0, 35, 22, 6.438587440982246e-09
0, 35, 23, 8.578578736262443e-09
0, 35, 24, 1.481279277015801e-08
0, 36, 0, 2.176515501162157e-08
0, 36, 1, 1.906518853900252e-08
0, 36, 2, 1.694084872383428e-08
0, 36, 3, 1.370573432524225e-08
0, 36, 4, 1.244525105192906e-08
0, 36, 5, 2.667647081011637e-08
0, 36, 6, 4.678966103455195e-09
0, 36, 7, 1.968014373687765e-08
0, 36, 8, 1.905656610290407e-08
0, 36, 9, 2.259336540078039e-08
0, 36, 10, 9.975049231059074e-09
0, 36, 11, 1.500618296290668e-08
0, 36, 12, 1.501823732041885e-08
0, 36, 13, 1.437453711616854e-08
0, 36, 14, 1.595307352886266e-08
0, 36, 15, 1.934209059584191e-08
0, 36, 16, 1.539698857300209e-08
0, 36, 17, 9.049089477741745e-09
0, 36, 18, 1.616232125911665e-08
0, 36, 19, 2.182283509455374e-08
0, 36, 20, 1.020578821453455e-08
0, 36, 21, 2.541428578695104e-08
0, 36, 22, 3.324665698301033e-08
