# TOPAS Version: 3.7
# Parameter File: TestingDose4.txt
# Results for scorer TestingDose4
# Scored in component: Phantom
# X in 50 bins of 0.1 cm
# Y in 50 bins of 0.1 cm
# Z in 50 bins of 0.1 cm
# DoseToMedium ( Gy ) : Sum   
0, 0, 0, 1.681887340510002e-08
0, 0, 1, 1.334892463233928e-08
0, 0, 2, 3.278935167827512e-08
0, 0, 3, 1.304678054481201e-08
0, 0, 4, 4.092359784380051e-09
0, 0, 5, 0
0, 0, 6, 9.319689020514943e-09
0, 0, 7, 7.06994185417642e-10
0, 0, 8, 9.108629406284763e-09
0, 0, 9, 1.92767934947824e-09
0, 0, 10, 7.966913351253879e-09
0, 0, 11, 1.278848582586534e-08
0, 0, 12, 1.743251765162768e-09
0, 0, 13, 2.286624400937853e-08
0, 0, 14, 9.474988793556349e-09
0, 0, 15, 5.638567390775506e-09
0, 0, 16, 1.174112806978655e-08
0, 0, 17, 8.801385398271577e-09
0, 0, 18, 8.494899894628816e-09
0, 0, 19, 1.363348633987016e-08
0, 0, 20, 9.321927230132587e-09
0, 0, 21, 1.159625373503559e-08
0, 0, 22, 6.290156839838801e-09
0, 0, 23, 3.371954271358391e-09
0, 0, 24, 1.347668532325486e-09
0, 0, 25, 7.5728676662834e-09
0, 0, 26, 1.475571664855124e-08
0, 0, 27, 8.596141576333594e-09
0, 0, 28, 3.517036262223883e-08
0, 0, 29, 4.562623612258676e-09
0, 0, 30, 0
0, 0, 31, 6.240368666254881e-09
0, 0, 32, 5.356791010768802e-09
0, 0, 33, 6.36642782936292e-09
0, 0, 34, 1.809929983664915e-08
0, 0, 35, 2.520623354484997e-08
0, 0, 36, 1.213776190667204e-08
0, 0, 37, 2.521516773157373e-09
0, 0, 38, 4.779048268233055e-09
0, 0, 39, 1.464136012430117e-08
0, 0, 40, 2.253552899844635e-08
0, 0, 41, 1.229429447135999e-08
0, 0, 42, 6.191229751095761e-09
0, 0, 43, 3.134095205581389e-09
0, 0, 44, 7.06832103958277e-09
0, 0, 45, 1.13595133299782e-08
0, 0, 46, 9.908426967797368e-09
0, 0, 47, 1.295874696438659e-08
0, 0, 48, 1.038147878773543e-08
0, 0, 49, 8.605310242160158e-09
0, 1, 0, 8.674372331540781e-09
0, 1, 1, 9.945737566852131e-09
0, 1, 2, 8.301514142772248e-09
0, 1, 3, 2.273493215909639e-08
0, 1, 4, 5.024366256378698e-09
0, 1, 5, 8.773016091367936e-09
0, 1, 6, 6.281254627538146e-09
0, 1, 7, 3.699196726714149e-09
0, 1, 8, 8.583190158617526e-09
0, 1, 9, 1.184984821378521e-08
0, 1, 10, 1.620645839750523e-08
0, 1, 11, 3.222788080847749e-08
0, 1, 12, 1.590169951271037e-08
0, 1, 13, 1.765397961150938e-08
0, 1, 14, 1.068932409253875e-08
0, 1, 15, 4.2807628553021e-09
0, 1, 16, 1.485443590354407e-08
0, 1, 17, 1.509569802493615e-09
0, 1, 18, 5.830918414773123e-09
0, 1, 19, 1.546833061638608e-08
0, 1, 20, 9.947656920417103e-09
0, 1, 21, 1.955351436322417e-08
0, 1, 22, 1.262851689887157e-08
0, 1, 23, 4.155133570549197e-09
0, 1, 24, 3.728551245529843e-09
0, 1, 25, 1.832191109940595e-08
0, 1, 26, 5.888497245365443e-09
0, 1, 27, 6.373936933812274e-09
0, 1, 28, 1.185968212524813e-08
0, 1, 29, 7.646189459364905e-09
0, 1, 30, 4.329200609110018e-10
0, 1, 31, 2.007283406157967e-08
0, 1, 32, 1.272104466210067e-08
0, 1, 33, 1.370390201316241e-08
0, 1, 34, 2.320615344331145e-08
0, 1, 35, 7.84165621325883e-09
0, 1, 36, 8.108824722796726e-09
0, 1, 37, 1.426727003206452e-08
0, 1, 38, 4.440588785570299e-09
0, 1, 39, 1.16080576262334e-08
0, 1, 40, 2.42160442809336e-08
0, 1, 41, 2.010649069461579e-08
0, 1, 42, 6.645080485867538e-09
0, 1, 43, 7.590123196621335e-09
0, 1, 44, 6.04986549745945e-09
0, 1, 45, 7.891203246401801e-09
0, 1, 46, 1.181599040833703e-09
0, 1, 47, 0
0, 1, 48, 4.107866935498805e-09
0, 1, 49, 1.692075701775764e-09
0, 2, 0, 1.20934551262053e-08
0, 2, 1, 4.551738097546831e-09
0, 2, 2, 9.671676792777362e-09
0, 2, 3, 5.129118019198131e-09
0, 2, 4, 8.0860962370366e-10
0, 2, 5, 1.177746256075807e-08
0, 2, 6, 1.470890631516397e-09
0, 2, 7, 7.185114725416497e-09
0, 2, 8, 1.206305277889896e-08
0, 2, 9, 2.463715231826313e-09
0, 2, 10, 7.655282630025795e-09
0, 2, 11, 2.71997908640742e-08
0, 2, 12, 1.338596167244077e-08
0, 2, 13, 2.957340594633706e-09
0, 2, 14, 7.672628754562538e-09
0, 2, 15, 1.166303675859126e-08
0, 2, 16, 5.317325246778637e-09
0, 2, 17, 2.005458021869799e-08
0, 2, 18, 9.684486990124697e-09
0, 2, 19, 1.100447999391463e-08
0, 2, 20, 5.511341161223982e-09
0, 2, 21, 8.139577012400423e-09
0, 2, 22, 1.949572414616796e-08
0, 2, 23, 7.939352286712165e-09
0, 2, 24, 1.513590142110388e-08
0, 2, 25, 9.007430357144131e-10
0, 2, 26, 7.556449688195244e-09
0, 2, 27, 7.271049096146953e-09
0, 2, 28, 7.911632238233324e-09
0, 2, 29, 1.324859333351469e-08
0, 2, 30, 1.464782406479515e-09
0, 2, 31, 9.64274526893405e-09
0, 2, 32, 8.10283040664217e-09
0, 2, 33, 4.011154963734498e-09
0, 2, 34, 0
0, 2, 35, 7.67940644408327e-09
0, 2, 36, 1.284898853981531e-09
0, 2, 37, 8.427952558065499e-09
0, 2, 38, 1.771790048010757e-09
0, 2, 39, 1.436036800583906e-08
0, 2, 40, 5.02225772081033e-09
0, 2, 41, 1.942994876102944e-09
0, 2, 42, 7.654119116295988e-09
0, 2, 43, 8.354858138659438e-09
0, 2, 44, 9.100696196640001e-09
0, 2, 45, 3.847983265359289e-09
0, 2, 46, 5.308729456032779e-09
0, 2, 47, 1.889980971725436e-08
0, 2, 48, 5.571541450422046e-09
0, 2, 49, 6.590907819514769e-10
0, 3, 0, 6.009678532592488e-09
0, 3, 1, 9.127282929455305e-09
0, 3, 2, 2.054928494032993e-08
0, 3, 3, 1.765990198521195e-08
0, 3, 4, 6.035359323419698e-09
0, 3, 5, 1.045589304027317e-08
0, 3, 6, 1.280440198314636e-08
0, 3, 7, 7.31193061653812e-09
0, 3, 8, 1.112087666399475e-08
0, 3, 9, 1.517148184859707e-08
0, 3, 10, 6.407864017177189e-09
0, 3, 11, 7.42942640741262e-09
0, 3, 12, 8.824833308551661e-09
0, 3, 13, 2.2605647131968e-08
0, 3, 14, 7.699015647233409e-09
0, 3, 15, 7.93838861312679e-09
0, 3, 16, 6.357427029257678e-09
0, 3, 17, 7.267044743741735e-09
0, 3, 18, 1.347404321450085e-08
0, 3, 19, 1.802229654401799e-08
0, 3, 20, 1.387299075616966e-08
0, 3, 21, 7.498301535235896e-09
0, 3, 22, 4.520174456956738e-09
0, 3, 23, 1.75184595718747e-08
0, 3, 24, 1.72434369005714e-08
0, 3, 25, 1.014927253351061e-09
0, 3, 26, 3.322256958426806e-08
0, 3, 27, 1.045219466533354e-08
0, 3, 28, 1.786356840227654e-08
0, 3, 29, 1.386190717767022e-08
0, 3, 30, 5.5986895119986e-09
0, 3, 31, 5.016882020925095e-09
0, 3, 32, 1.442080055369388e-08
0, 3, 33, 1.396501581041321e-08
0, 3, 34, 1.440886521208995e-08
0, 3, 35, 1.196452004137427e-08
0, 3, 36, 4.784681095770793e-09
0, 3, 37, 7.552458214377111e-09
0, 3, 38, 9.910594123141436e-09
0, 3, 39, 6.491560067267699e-11
0, 3, 40, 4.264510966578428e-09
0, 3, 41, 7.086217834739728e-09
0, 3, 42, 2.733448134506489e-09
0, 3, 43, 1.40836702300362e-08
0, 3, 44, 1.772360258556205e-09
0, 3, 45, 2.012241928639469e-08
0, 3, 46, 6.755270565150795e-09
0, 3, 47, 1.162280227617885e-08
0, 3, 48, 1.02235313548249e-08
0, 3, 49, 3.568790152286283e-09
0, 4, 0, 7.127886281210749e-09
0, 4, 1, 6.080643100148109e-09
0, 4, 2, 7.54322204699065e-09
0, 4, 3, 6.346411396407348e-09
0, 4, 4, 5.21714582646382e-09
0, 4, 5, 2.403657894944899e-08
0, 4, 6, 7.991600270429444e-09
0, 4, 7, 1.975531915832107e-08
0, 4, 8, 2.200851234590573e-08
0, 4, 9, 7.166811588632527e-09
0, 4, 10, 1.21011467513199e-08
0, 4, 11, 6.843247746246561e-09
0, 4, 12, 1.29285719907557e-08
0, 4, 13, 1.479490041589315e-08
0, 4, 14, 1.550711914433123e-08
0, 4, 15, 2.275518662386844e-09
0, 4, 16, 8.23806622918255e-09
0, 4, 17, 6.248120687502023e-09
0, 4, 18, 1.937668914209212e-09
0, 4, 19, 9.920626098391949e-09
0, 4, 20, 1.204885524686006e-08
0, 4, 21, 2.142723865006246e-08
0, 4, 22, 3.764071365708332e-08
0, 4, 23, 1.594840148833043e-09
0, 4, 24, 4.294514077685108e-09
0, 4, 25, 5.914523093508706e-09
0, 4, 26, 1.240743419117507e-08
0, 4, 27, 1.327922394267489e-08
0, 4, 28, 1.108176039821274e-08
0, 4, 29, 1.480319600233315e-08
0, 4, 30, 7.450636552164269e-09
0, 4, 31, 1.225732404463997e-08
0, 4, 32, 8.801059436791547e-09
0, 4, 33, 1.586029085842711e-08
0, 4, 34, 3.178903185130366e-08
0, 4, 35, 1.144529804264494e-08
0, 4, 36, 8.253933536650493e-09
0, 4, 37, 5.189255247728397e-09
0, 4, 38, 4.650540397221903e-09
0, 4, 39, 1.288642170749199e-08
0, 4, 40, 1.200046106930586e-08
0, 4, 41, 3.076215060460186e-09
0, 4, 42, 1.861072185249668e-08
0, 4, 43, 8.798943795795822e-09
0, 4, 44, 1.093713208888403e-08
0, 4, 45, 4.723997637512412e-09
0, 4, 46, 1.267315319353202e-08
0, 4, 47, 1.166346397241114e-08
0, 4, 48, 4.299421707543161e-09
0, 4, 49, 7.783671485128707e-09
0, 5, 0, 2.035491775131959e-08
0, 5, 1, 7.906829857518005e-09
0, 5, 2, 3.279537086342543e-09
0, 5, 3, 2.786151043210339e-08
0, 5, 4, 8.083285152338249e-09
0, 5, 5, 1.010620476193935e-08
0, 5, 6, 4.190751301536011e-09
0, 5, 7, 2.21537970190866e-08
0, 5, 8, 1.290010409604747e-08
0, 5, 9, 2.025806367100813e-08
0, 5, 10, 6.645499706081637e-09
0, 5, 11, 4.045900059423957e-09
0, 5, 12, 1.185196207842409e-08
0, 5, 13, 1.454403175671359e-08
0, 5, 14, 2.431436030292389e-08
0, 5, 15, 1.042668351658449e-08
0, 5, 16, 8.657038641501913e-09
0, 5, 17, 1.64822324677516e-08
0, 5, 18, 1.796542470344775e-08
0, 5, 19, 1.972248853121528e-08
0, 5, 20, 3.063590270357963e-09
0, 5, 21, 4.730138503106218e-09
0, 5, 22, 5.067295028027274e-09
0, 5, 23, 3.981871543601301e-08
0, 5, 24, 1.515551595332454e-08
0, 5, 25, 1.914926350821133e-08
0, 5, 26, 8.962683928359638e-09
0, 5, 27, 1.152503070755984e-08
0, 5, 28, 6.347285808061542e-09
0, 5, 29, 2.969228862781392e-09
0, 5, 30, 4.087692850873736e-09
0, 5, 31, 1.905801072510371e-09
0, 5, 32, 6.297821819600813e-09
0, 5, 33, 1.620287015668964e-08
0, 5, 34, 3.020156569277788e-08
0, 5, 35, 1.186591891411126e-08
0, 5, 36, 1.294553175767987e-08
0, 5, 37, 1.152064843523704e-08
0, 5, 38, 3.079602350908317e-08
0, 5, 39, 1.769972257648078e-08
0, 5, 40, 1.393162030183248e-08
0, 5, 41, 9.288928737305469e-09
0, 5, 42, 1.498490886930881e-09
0, 5, 43, 1.191336185257796e-08
0, 5, 44, 1.064438315268035e-08
0, 5, 45, 1.783046377212827e-09
0, 5, 46, 6.534633723020988e-09
0, 5, 47, 1.870770871548189e-09
0, 5, 48, 1.054076648188129e-08
0, 5, 49, 2.813792931988246e-08
0, 6, 0, 1.671627813948362e-08
0, 6, 1, 7.46257100558978e-09
0, 6, 2, 3.534394776849581e-09
0, 6, 3, 7.784239031138895e-09
0, 6, 4, 1.327421228491943e-10
0, 6, 5, 7.850383454410803e-09
0, 6, 6, 4.329494096566577e-09
0, 6, 7, 1.196727250629692e-08
0, 6, 8, 2.052714620504048e-08
0, 6, 9, 5.853524331911331e-09
0, 6, 10, 2.396315323949239e-08
0, 6, 11, 3.379604152087268e-08
0, 6, 12, 9.819248525388957e-09
0, 6, 13, 8.139475760060577e-09
0, 6, 14, 7.195368745271935e-09
0, 6, 15, 1.425974716084966e-08
0, 6, 16, 1.518189662874647e-08
0, 6, 17, 7.585858163849934e-09
0, 6, 18, 1.119611248157071e-08
0, 6, 19, 2.918224772940903e-09
0, 6, 20, 3.523745517597376e-09
0, 6, 21, 1.487255829601963e-08
0, 6, 22, 1.358301826570596e-08
0, 6, 23, 9.123851008041584e-09
0, 6, 24, 2.537102261612745e-08
0, 6, 25, 1.026413087856781e-08
0, 6, 26, 2.162648193859695e-08
0, 6, 27, 6.242864447614238e-09
0, 6, 28, 1.232658597416503e-08
0, 6, 29, 0
0, 6, 30, 8.884832425337663e-09
0, 6, 31, 3.486109889649924e-08
0, 6, 32, 1.199794574802127e-08
0, 6, 33, 1.726568044091437e-08
0, 6, 34, 8.689414521256822e-09
0, 6, 35, 1.923697645622724e-08
0, 6, 36, 2.167110935147321e-09
0, 6, 37, 1.745799238506152e-08
0, 6, 38, 2.069846871677328e-08
0, 6, 39, 9.943276424451142e-09
0, 6, 40, 1.246673431154477e-08
0, 6, 41, 1.138932681499227e-08
0, 6, 42, 2.591770531523707e-08
0, 6, 43, 6.416189801683458e-09
0, 6, 44, 1.387546877396062e-08
0, 6, 45, 7.762565701341373e-09
0, 6, 46, 1.133813043452392e-08
0, 6, 47, 2.093357487353842e-08
0, 6, 48, 8.765337788929628e-09
0, 6, 49, 0
0, 7, 0, 1.01443218269992e-08
0, 7, 1, 8.522442307423717e-09
0, 7, 2, 1.327599452594086e-08
0, 7, 3, 1.688144735112473e-08
0, 7, 4, 6.009194253309147e-10
0, 7, 5, 1.407649996565397e-08
0, 7, 6, 3.523574765296189e-09
0, 7, 7, 6.607152602811084e-09
0, 7, 8, 1.299480700822642e-08
0, 7, 9, 1.796087190086837e-08
0, 7, 10, 4.458879931945603e-09
0, 7, 11, 1.229743329389521e-08
0, 7, 12, 2.290765088730495e-08
0, 7, 13, 2.203294968694536e-08
0, 7, 14, 5.448236972682707e-09
0, 7, 15, 2.980318658529768e-09
0, 7, 16, 7.39957206619124e-09
0, 7, 17, 6.766031734883882e-09
0, 7, 18, 8.872784285074431e-09
0, 7, 19, 3.090116607040727e-08
0, 7, 20, 1.589919840228049e-08
0, 7, 21, 1.288387796449797e-08
0, 7, 22, 1.708262686861417e-08
0, 7, 23, 3.819236127355907e-08
0, 7, 24, 2.033967305692386e-08
0, 7, 25, 4.245667639679596e-08
0, 7, 26, 1.763546997324283e-08
0, 7, 27, 3.213241228650077e-08
0, 7, 28, 4.976237200082778e-09
0, 7, 29, 2.345635152778414e-08
0, 7, 30, 1.594639087443284e-08
0, 7, 31, 9.634579356543327e-09
0, 7, 32, 9.434689474119295e-09
0, 7, 33, 8.34922353476486e-09
0, 7, 34, 1.629888402021606e-08
0, 7, 35, 9.064183181806129e-09
0, 7, 36, 1.003616856287692e-09
0, 7, 37, 1.633650192900404e-08
0, 7, 38, 1.055566567487176e-08
0, 7, 39, 4.795729591222653e-09
0, 7, 40, 2.276359190034327e-08
0, 7, 41, 1.165978602557516e-08
0, 7, 42, 5.600006236505806e-09
0, 7, 43, 2.220856387680215e-08
0, 7, 44, 1.757870293772612e-08
0, 7, 45, 8.122309047564613e-09
0, 7, 46, 3.484083022087248e-09
0, 7, 47, 2.094119544437945e-09
0, 7, 48, 2.663431963867424e-08
0, 7, 49, 1.552705697349666e-08
0, 8, 0, 1.282631068022511e-08
0, 8, 1, 9.864156602645835e-09
0, 8, 2, 1.460965659560998e-08
0, 8, 3, 2.466235038411924e-08
0, 8, 4, 1.377673086722098e-08
0, 8, 5, 1.035072205723964e-08
0, 8, 6, 1.456988574233264e-08
0, 8, 7, 1.802059479416585e-08
0, 8, 8, 1.09065769748895e-08
0, 8, 9, 1.106436009479239e-08
0, 8, 10, 1.42063774077883e-08
0, 8, 11, 6.827578946655422e-09
0, 8, 12, 4.165393008292995e-08
0, 8, 13, 1.254437087538918e-08
0, 8, 14, 1.706305496895766e-08
0, 8, 15, 2.291985623514847e-08
0, 8, 16, 5.675198089249989e-09
0, 8, 17, 2.418926214886596e-08
0, 8, 18, 3.424514716243721e-08
0, 8, 19, 3.900852973970359e-08
0, 8, 20, 1.253253767430351e-08
0, 8, 21, 3.012952021208548e-08
0, 8, 22, 1.578632335963448e-08
0, 8, 23, 7.333729179492821e-09
0, 8, 24, 6.614387260128751e-09
0, 8, 25, 2.137817034508771e-08
0, 8, 26, 1.62111053469971e-08
0, 8, 27, 2.396587639452719e-08
0, 8, 28, 5.192628549366418e-09
0, 8, 29, 2.267252874332826e-08
0, 8, 30, 7.92052912146346e-09
0, 8, 31, 6.805485064376171e-09
0, 8, 32, 1.229562673898954e-08
0, 8, 33, 1.041824937431102e-08
0, 8, 34, 1.646147396172637e-08
0, 8, 35, 9.493174246699709e-09
0, 8, 36, 9.591070160297477e-09
0, 8, 37, 1.529736337602117e-08
0, 8, 38, 1.92540259291718e-08
0, 8, 39, 4.968240485681008e-09
0, 8, 40, 6.30491037156844e-09
0, 8, 41, 5.52579937362907e-09
0, 8, 42, 8.124767525430343e-09
0, 8, 43, 3.024058514711214e-08
0, 8, 44, 8.320328426236756e-09
0, 8, 45, 3.798841241575701e-09
0, 8, 46, 7.89793030975261e-09
0, 8, 47, 1.006236072242928e-08
0, 8, 48, 1.256217441181207e-08
0, 8, 49, 2.84277685835832e-08
0, 9, 0, 1.551468287175339e-08
0, 9, 1, 3.671969750485005e-08
0, 9, 2, 1.822626316538845e-08
0, 9, 3, 1.187192744112053e-08
0, 9, 4, 2.363127293847356e-08
0, 9, 5, 4.6196571013013e-09
0, 9, 6, 1.69567915264679e-08
0, 9, 7, 2.515230512756261e-08
0, 9, 8, 1.016952744237187e-08
0, 9, 9, 6.747246317218014e-09
0, 9, 10, 1.454503806286311e-08
0, 9, 11, 1.058868726033779e-08
0, 9, 12, 1.415323680475922e-08
0, 9, 13, 1.23446231015123e-08
0, 9, 14, 2.40004798257587e-08
0, 9, 15, 2.430724288515762e-09
0, 9, 16, 2.708562929498726e-09
0, 9, 17, 5.630300115022635e-10
0, 9, 18, 9.346257101583433e-09
0, 9, 19, 1.36776217019019e-08
0, 9, 20, 5.920513412860373e-09
0, 9, 21, 1.558828977010762e-08
0, 9, 22, 2.720775604814207e-08
0, 9, 23, 4.896567151746467e-09
0, 9, 24, 1.448003583703894e-08
0, 9, 25, 1.134984017880925e-08
0, 9, 26, 1.773404001426115e-08
0, 9, 27, 1.705637586724151e-08
0, 9, 28, 1.497553903107018e-08
0, 9, 29, 5.142521075640616e-09
0, 9, 30, 4.301905676129536e-08
0, 9, 31, 6.59256071955383e-09
0, 9, 32, 7.518117683957826e-09
0, 9, 33, 7.160148918217146e-09
0, 9, 34, 8.307901033788312e-09
0, 9, 35, 8.801324113960618e-09
0, 9, 36, 1.51878492005153e-08
0, 9, 37, 2.135052490359612e-08
0, 9, 38, 1.159403328898634e-08
0, 9, 39, 2.310530256011134e-08
0, 9, 40, 1.273213534602746e-09
0, 9, 41, 2.211015370789937e-09
0, 9, 42, 2.11222364043806e-08
0, 9, 43, 2.24415561689284e-08
0, 9, 44, 9.124525135462136e-09
0, 9, 45, 8.790770777977741e-09
0, 9, 46, 1.094500934328835e-08
0, 9, 47, 1.094436807846932e-08
0, 9, 48, 1.12176987698831e-08
0, 9, 49, 4.818937249240207e-09
0, 10, 0, 2.311180935521406e-08
0, 10, 1, 9.758029939632706e-10
0, 10, 2, 2.560661371830975e-08
0, 10, 3, 2.123537612419568e-08
0, 10, 4, 5.913383116507021e-09
0, 10, 5, 1.352618106409409e-08
0, 10, 6, 1.782530567595586e-08
0, 10, 7, 3.011757954141103e-08
0, 10, 8, 7.180424699271271e-09
0, 10, 9, 5.677679215665421e-09
0, 10, 10, 1.11126192692268e-08
0, 10, 11, 1.128389914839545e-08
0, 10, 12, 1.427985196755799e-08
0, 10, 13, 1.284846362636927e-08
0, 10, 14, 3.238275425587744e-08
0, 10, 15, 2.041556967924407e-08
0, 10, 16, 2.88425408001558e-08
0, 10, 17, 2.6613705017553e-08
0, 10, 18, 6.856021528278688e-09
0, 10, 19, 1.310178898705772e-08
0, 10, 20, 5.693040261434135e-09
0, 10, 21, 9.121022159774839e-09
0, 10, 22, 7.940365698289042e-09
0, 10, 23, 1.243422431684849e-08
0, 10, 24, 1.715212327724203e-08
0, 10, 25, 2.994172021431041e-08
0, 10, 26, 1.444941499784136e-08
0, 10, 27, 1.968912144434398e-08
0, 10, 28, 1.520002790300623e-08
0, 10, 29, 8.44954151091315e-09
0, 10, 30, 1.913488034688271e-08
0, 10, 31, 1.880355782191145e-08
0, 10, 32, 1.70103753305284e-08
0, 10, 33, 8.516671812230925e-09
0, 10, 34, 1.000836213904677e-08
0, 10, 35, 1.97952747527097e-08
0, 10, 36, 7.50394679727151e-09
0, 10, 37, 2.574794244480927e-08
0, 10, 38, 8.571952037073061e-09
0, 10, 39, 1.770991886473894e-08
0, 10, 40, 1.390129966694076e-08
0, 10, 41, 4.873767167623555e-09
0, 10, 42, 9.15641251708621e-09
0, 10, 43, 1.733165078121601e-08
0, 10, 44, 1.897717005761024e-08
0, 10, 45, 2.338268778601105e-08
0, 10, 46, 1.595805798615402e-08
0, 10, 47, 9.433665404401381e-09
0, 10, 48, 1.678408168004353e-08
0, 10, 49, 6.28684126979806e-09
0, 11, 0, 1.948415473407294e-08
0, 11, 1, 1.786763736966179e-09
0, 11, 2, 6.325244328309054e-09
0, 11, 3, 2.024792955523935e-08
0, 11, 4, 1.76512209293378e-08
0, 11, 5, 1.077949463024197e-08
0, 11, 6, 1.140944405619848e-08
0, 11, 7, 4.776882445156616e-09
0, 11, 8, 3.275516746725771e-08
0, 11, 9, 1.425880924443845e-08
0, 11, 10, 3.752862554051717e-08
0, 11, 11, 1.432262664025075e-08
0, 11, 12, 2.04367562872676e-08
0, 11, 13, 8.036000309630253e-09
0, 11, 14, 6.543882324905326e-09
0, 11, 15, 1.648809977439214e-08
0, 11, 16, 7.713840233236624e-09
0, 11, 17, 1.936959925785686e-08
0, 11, 18, 1.842035679544551e-08
0, 11, 19, 5.947468295630642e-09
0, 11, 20, 2.326341252967268e-08
0, 11, 21, 2.454893888170773e-08
0, 11, 22, 1.920555270373825e-08
0, 11, 23, 7.263046164496245e-09
0, 11, 24, 7.42302930234473e-09
0, 11, 25, 2.433615264862965e-08
0, 11, 26, 1.463283538782889e-08
0, 11, 27, 5.87147619413031e-09
0, 11, 28, 1.259702031575216e-08
0, 11, 29, 1.878885669270858e-08
0, 11, 30, 5.333670394236378e-09
0, 11, 31, 7.486343100993054e-09
0, 11, 32, 1.305584440558505e-08
0, 11, 33, 1.515915393213163e-08
0, 11, 34, 1.281340633596528e-08
0, 11, 35, 1.494722567940698e-08
0, 11, 36, 2.214809313727528e-08
0, 11, 37, 1.157664097917177e-08
0, 11, 38, 1.511471303672351e-08
0, 11, 39, 1.8289082248657e-08
0, 11, 40, 2.657949416118299e-08
0, 11, 41, 5.49757261936179e-09
0, 11, 42, 1.2975554852801e-08
0, 11, 43, 2.31071357603696e-08
0, 11, 44, 2.12959125889256e-08
0, 11, 45, 1.270104377226744e-08
0, 11, 46, 2.187090508698475e-08
0, 11, 47, 1.686757222785218e-08
0, 11, 48, 1.602156629587626e-08
0, 11, 49, 8.313852717378722e-09
0, 12, 0, 1.454901532582653e-08
0, 12, 1, 2.800847376249749e-08
0, 12, 2, 1.642505154109131e-08
0, 12, 3, 2.425816525430946e-08
0, 12, 4, 1.165437346628551e-08
0, 12, 5, 1.466049770471045e-08
0, 12, 6, 5.981777295716029e-09
0, 12, 7, 7.386293354727513e-09
0, 12, 8, 2.011981159455445e-08
0, 12, 9, 1.248230852013421e-08
0, 12, 10, 1.076442313063808e-08
0, 12, 11, 1.376501312932987e-08
0, 12, 12, 2.632177320549545e-08
0, 12, 13, 8.596693135132227e-09
0, 12, 14, 7.243853072935735e-09
0, 12, 15, 1.534692728455411e-08
0, 12, 16, 1.626298740120546e-08
0, 12, 17, 2.738214632813651e-08
0, 12, 18, 1.117240167047839e-08
0, 12, 19, 1.696598062039811e-08
0, 12, 20, 3.160581130146056e-08
0, 12, 21, 3.0554126340121e-08
0, 12, 22, 2.293211842641085e-08
0, 12, 23, 1.111081626703481e-08
0, 12, 24, 2.905440510403423e-08
0, 12, 25, 1.329266030580811e-08
0, 12, 26, 1.074238475951006e-08
0, 12, 27, 1.88011117785436e-08
0, 12, 28, 1.24850627614137e-08
0, 12, 29, 1.048687003901705e-08
0, 12, 30, 9.832928249409179e-09
0, 12, 31, 1.837353380551576e-08
0, 12, 32, 7.698285564572416e-09
0, 12, 33, 2.58124650542868e-08
0, 12, 34, 8.704872378473283e-09
0, 12, 35, 4.744281056900945e-08
0, 12, 36, 1.398679927433477e-08
0, 12, 37, 4.119756091824911e-09
0, 12, 38, 8.649010396766244e-09
0, 12, 39, 1.612256994576455e-08
0, 12, 40, 1.02186126227366e-08
0, 12, 41, 1.260972215533229e-08
0, 12, 42, 9.796656819105465e-09
0, 12, 43, 1.674479932489703e-08
0, 12, 44, 1.848062858300636e-08
0, 12, 45, 2.929301423648667e-08
0, 12, 46, 3.326354081067961e-09
0, 12, 47, 8.198546730397993e-09
0, 12, 48, 5.202048125596548e-09
0, 12, 49, 2.925669129183461e-08
0, 13, 0, 4.841571143998635e-09
0, 13, 1, 3.090108435799266e-08
0, 13, 2, 1.286877893136307e-08
0, 13, 3, 4.980855283776009e-09
0, 13, 4, 1.096571278225156e-08
0, 13, 5, 1.237415236943207e-08
0, 13, 6, 9.914423948487183e-09
0, 13, 7, 9.301025727381784e-09
0, 13, 8, 2.470201820869988e-08
0, 13, 9, 1.198026300386346e-08
0, 13, 10, 2.137350385567061e-08
0, 13, 11, 1.892569656547494e-08
0, 13, 12, 1.661075010872537e-08
0, 13, 13, 2.795652953579975e-08
0, 13, 14, 2.490906325647302e-08
0, 13, 15, 1.949428884984172e-08
0, 13, 16, 1.954563444428459e-08
0, 13, 17, 1.566457896728934e-08
0, 13, 18, 1.973635477270363e-08
0, 13, 19, 1.714139941100257e-08
0, 13, 20, 2.224928152827488e-08
0, 13, 21, 3.506671220065982e-08
0, 13, 22, 9.281034607511174e-09
0, 13, 23, 1.604995780724039e-08
0, 13, 24, 1.838028751421916e-08
0, 13, 25, 3.312934282462265e-08
0, 13, 26, 4.53574280356861e-08
0, 13, 27, 1.835974750008518e-08
0, 13, 28, 1.715898356735579e-08
0, 13, 29, 2.800778631240064e-08
0, 13, 30, 2.64611692557537e-08
0, 13, 31, 1.659921977648082e-08
0, 13, 32, 1.631462431816999e-08
0, 13, 33, 9.472864270776427e-09
0, 13, 34, 1.770280455559714e-08
0, 13, 35, 1.203205712840827e-08
0, 13, 36, 7.025151127493245e-09
0, 13, 37, 6.314105682747595e-09
0, 13, 38, 1.248773706663542e-08
0, 13, 39, 8.663608497272435e-09
0, 13, 40, 2.195815618222241e-08
0, 13, 41, 1.747809896812669e-08
0, 13, 42, 2.347326777396574e-08
0, 13, 43, 2.68137601011631e-08
0, 13, 44, 1.242291425285202e-08
0, 13, 45, 7.701552284800073e-09
0, 13, 46, 9.173389159400358e-09
0, 13, 47, 6.04533312298372e-09
0, 13, 48, 5.039431094644442e-09
0, 13, 49, 3.702839812547154e-09
0, 14, 0, 6.99217217459136e-09
0, 14, 1, 2.135233323485863e-08
0, 14, 2, 1.803913463049867e-08
0, 14, 3, 1.22310090944211e-08
0, 14, 4, 8.582944133195269e-09
0, 14, 5, 8.540236962062409e-09
0, 14, 6, 5.918861845088941e-09
0, 14, 7, 1.235953384082222e-08
0, 14, 8, 7.266621082635538e-09
0, 14, 9, 1.882806621722466e-08
0, 14, 10, 1.766642654388306e-08
0, 14, 11, 2.127718623512465e-08
0, 14, 12, 2.081189975911002e-08
0, 14, 13, 1.113455727619339e-08
0, 14, 14, 1.286745643369613e-08
0, 14, 15, 4.259981700727167e-09
0, 14, 16, 9.842336723409062e-09
0, 14, 17, 1.310721309266683e-08
0, 14, 18, 3.587088670542471e-08
0, 14, 19, 2.366739160208908e-08
0, 14, 20, 2.317047709254894e-08
0, 14, 21, 8.838569875990743e-09
0, 14, 22, 1.178429354098398e-08
0, 14, 23, 2.51184726351994e-08
0, 14, 24, 1.83768129602413e-08
0, 14, 25, 2.260268416875988e-08
0, 14, 26, 4.684649113073647e-09
0, 14, 27, 1.286239736941752e-08
0, 14, 28, 1.170710639541994e-08
0, 14, 29, 1.926628812043418e-08
0, 14, 30, 2.216393824028273e-08
0, 14, 31, 1.111620662186397e-08
0, 14, 32, 2.143460342551862e-08
0, 14, 33, 9.601091477406953e-09
0, 14, 34, 2.400241960742733e-08
0, 14, 35, 2.372819807305859e-08
0, 14, 36, 1.544492711502699e-08
0, 14, 37, 1.18574670082694e-08
0, 14, 38, 1.381541547829102e-08
0, 14, 39, 1.376196756552872e-08
0, 14, 40, 4.019409161060139e-08
0, 14, 41, 1.113667824625963e-08
0, 14, 42, 1.855468312328412e-08
0, 14, 43, 6.946271557950467e-09
0, 14, 44, 6.028239241118172e-09
0, 14, 45, 1.588196418822463e-08
0, 14, 46, 1.511826752675915e-08
0, 14, 47, 1.250025238874741e-08
0, 14, 48, 4.863083269412982e-09
0, 14, 49, 6.319048839742436e-09
0, 15, 0, 1.520164794044376e-08
0, 15, 1, 2.950951660807277e-08
0, 15, 2, 1.950167494157995e-08
0, 15, 3, 6.126536167272434e-09
0, 15, 4, 3.848379392934476e-09
0, 15, 5, 2.85444166081561e-08
0, 15, 6, 1.799034343719086e-08
0, 15, 7, 3.067506781917473e-08
0, 15, 8, 2.122784970026714e-08
0, 15, 9, 8.443462817808722e-09
0, 15, 10, 1.716868247569892e-08
0, 15, 11, 1.354533640807176e-08
0, 15, 12, 1.23898837856018e-08
0, 15, 13, 3.272907278528692e-08
0, 15, 14, 2.3837042562036e-08
0, 15, 15, 2.541361610042259e-08
0, 15, 16, 2.530347709139846e-09
0, 15, 17, 2.895172102057586e-08
0, 15, 18, 1.42372966749349e-08
0, 15, 19, 1.736587584844074e-08
0, 15, 20, 2.307750968100208e-08
0, 15, 21, 4.676625664501444e-08
0, 15, 22, 2.438457080700118e-08
0, 15, 23, 9.920544385977337e-09
0, 15, 24, 3.011005844655301e-08
0, 15, 25, 1.109588865233491e-08
0, 15, 26, 3.44690249676205e-08
0, 15, 27, 3.174882579060068e-08
0, 15, 28, 1.612912114978826e-08
0, 15, 29, 1.426650175773148e-08
0, 15, 30, 1.728556320301777e-08
0, 15, 31, 8.287697639275393e-09
0, 15, 32, 8.574427390328765e-09
0, 15, 33, 1.258741555432152e-08
0, 15, 34, 1.815353378731288e-08
0, 15, 35, 1.119759751588845e-08
0, 15, 36, 1.270468352743137e-08
0, 15, 37, 3.17357340406943e-08
0, 15, 38, 9.411851742413546e-09
0, 15, 39, 3.024854322575266e-08
0, 15, 40, 9.816388590877523e-09
0, 15, 41, 1.414686057188419e-08
0, 15, 42, 2.067182158782543e-08
0, 15, 43, 1.433130591976806e-08
0, 15, 44, 5.963594063018718e-09
0, 15, 45, 1.857927500736878e-08
0, 15, 46, 1.521652492897374e-08
0, 15, 47, 1.917581826660353e-08
0, 15, 48, 4.757463312188293e-09
0, 15, 49, 1.793396187110829e-08
0, 16, 0, 1.332933319275753e-08
0, 16, 1, 9.709690829140527e-09
0, 16, 2, 7.12613656972394e-09
0, 16, 3, 1.099238478019515e-08
0, 16, 4, 2.063065096535865e-08
0, 16, 5, 1.875411470564359e-08
0, 16, 6, 1.820639461413975e-08
0, 16, 7, 3.70412998051961e-08
0, 16, 8, 8.270852447367361e-09
0, 16, 9, 1.276832595209498e-08
0, 16, 10, 8.39883451675405e-09
0, 16, 11, 1.650254510821014e-08
0, 16, 12, 2.595222170498346e-08
0, 16, 13, 2.34246506636282e-08
0, 16, 14, 7.697106063631054e-09
0, 16, 15, 1.580878006279818e-08
0, 16, 16, 1.510031744089702e-08
0, 16, 17, 2.163702106372511e-08
0, 16, 18, 1.000296556696867e-08
0, 16, 19, 1.659148729515891e-08
0, 16, 20, 1.093670309870731e-08
0, 16, 21, 1.625066126109687e-08
0, 16, 22, 2.746484817350847e-08
0, 16, 23, 1.078529532350103e-08
0, 16, 24, 3.318848484923365e-08
0, 16, 25, 2.451479197418394e-08
0, 16, 26, 1.736342269964553e-08
0, 16, 27, 1.866687071583328e-08
0, 16, 28, 2.645596275385742e-08
0, 16, 29, 3.098994483252682e-08
0, 16, 30, 2.399093190774693e-08
0, 16, 31, 2.271180932211792e-08
0, 16, 32, 6.419049292105683e-09
0, 16, 33, 1.536406202262697e-08
0, 16, 34, 1.3755803607296e-08
0, 16, 35, 1.104708680088606e-08
0, 16, 36, 2.135443466499964e-08
0, 16, 37, 1.474377064880628e-08
0, 16, 38, 1.478789357634014e-08
0, 16, 39, 2.445987945520756e-08
0, 16, 40, 1.542886529648513e-08
0, 16, 41, 1.373271185656222e-08
0, 16, 42, 1.158777518384113e-08
0, 16, 43, 6.55888632294932e-09
0, 16, 44, 6.458520829255576e-08
0, 16, 45, 2.014680688944281e-08
0, 16, 46, 7.334295837324589e-09
0, 16, 47, 2.026163059554165e-08
0, 16, 48, 1.521791404002215e-08
0, 16, 49, 6.32104990572202e-09
0, 17, 0, 1.229613832975929e-08
0, 17, 1, 1.36791005189707e-08
0, 17, 2, 3.774691670344055e-09
0, 17, 3, 5.007730674577715e-09
0, 17, 4, 3.41806440928849e-08
0, 17, 5, 2.499923112964098e-08
0, 17, 6, 5.179584761094702e-09
0, 17, 7, 9.996271366219389e-09
0, 17, 8, 3.465002151870067e-08
0, 17, 9, 1.513029523891873e-08
0, 17, 10, 2.456409120554781e-08
0, 17, 11, 9.380929810731686e-09
0, 17, 12, 2.208226135280711e-08
0, 17, 13, 9.050248550579454e-09
0, 17, 14, 2.028369827655752e-08
0, 17, 15, 7.163283743949478e-09
0, 17, 16, 2.152738076688365e-08
0, 17, 17, 1.853304354426655e-08
0, 17, 18, 1.972135699190858e-08
0, 17, 19, 2.84929253524524e-08
0, 17, 20, 3.425546424296044e-08
0, 17, 21, 1.651992675988367e-08
0, 17, 22, 1.538506566589604e-08
0, 17, 23, 7.289395753673489e-09
0, 17, 24, 2.410538257890948e-08
0, 17, 25, 2.400556198267623e-08
0, 17, 26, 1.209020972225971e-08
0, 17, 27, 2.07982875366497e-08
0, 17, 28, 2.487457351207922e-08
0, 17, 29, 3.399817316562803e-08
0, 17, 30, 2.055048931026704e-08
0, 17, 31, 2.038620827704563e-08
0, 17, 32, 6.643419592222699e-09
0, 17, 33, 1.894127876767016e-08
0, 17, 34, 2.252917319367498e-08
0, 17, 35, 1.601815213803093e-08
0, 17, 36, 1.719856079773763e-08
0, 17, 37, 3.579992124969067e-08
0, 17, 38, 1.433547147655645e-08
0, 17, 39, 1.657115689113198e-08
0, 17, 40, 7.474664442952417e-09
0, 17, 41, 6.72066180484876e-09
0, 17, 42, 1.738657218197659e-08
0, 17, 43, 8.018040453805497e-09
0, 17, 44, 9.474336870596289e-09
0, 17, 45, 1.948275141216982e-08
0, 17, 46, 8.461868539200168e-09
0, 17, 47, 2.269873711213677e-08
0, 17, 48, 1.398785176576212e-08
0, 17, 49, 3.064427644972056e-08
0, 18, 0, 9.786653709653592e-10
0, 18, 1, 7.399274526420641e-09
0, 18, 2, 2.101210938576514e-08
0, 18, 3, 3.966263761867594e-09
0, 18, 4, 5.885619458467772e-08
0, 18, 5, 8.925486127964177e-09
0, 18, 6, 2.507898777537321e-08
0, 18, 7, 8.840162379897265e-09
0, 18, 8, 1.364430790573579e-08
0, 18, 9, 5.830185223487661e-09
0, 18, 10, 3.233238388133941e-08
0, 18, 11, 7.756370656863965e-09
0, 18, 12, 1.067545607469356e-08
0, 18, 13, 2.543865385007393e-08
0, 18, 14, 2.211269567453655e-08
0, 18, 15, 3.348566224303795e-08
0, 18, 16, 2.304994239921143e-08
0, 18, 17, 7.287955572365945e-09
0, 18, 18, 2.024145118184606e-08
0, 18, 19, 1.580865749417626e-08
0, 18, 20, 8.55276027778018e-09
0, 18, 21, 1.417183259633248e-08
0, 18, 22, 1.161687279704893e-08
0, 18, 23, 1.312208919301838e-08
0, 18, 24, 3.363067690997923e-08
0, 18, 25, 1.796474258242142e-08
0, 18, 26, 1.883914180211832e-08
0, 18, 27, 4.339459014346403e-09
0, 18, 28, 3.068539200512532e-08
0, 18, 29, 2.26321343888003e-08
