# TOPAS Version: 3.7
# Parameter File: TestingDose4.txt
# Results for scorer TestingDose4
# Scored in component: Phantom
# X in 50 bins of 0.1 cm
# Y in 50 bins of 0.1 cm
# Z in 50 bins of 0.1 cm
# DoseToMedium ( Gy ) : Sum   
0, 0, 0, 4.447487711445319e-09
0, 0, 1, 1.078998312920021e-08
0, 0, 2, 1.519785897130532e-08
0, 0, 3, 9.81322667570339e-09
0, 0, 4, 4.335737990857069e-09
0, 0, 5, 4.590988478270219e-09
0, 0, 6, 1.001077265527783e-08
0, 0, 7, 5.189639384894917e-09
0, 0, 8, 7.356050879536724e-09
0, 0, 9, 1.430580098826795e-08
0, 0, 10, 2.61407144819259e-08
0, 0, 11, 2.220638251060336e-08
0, 0, 12, 1.206594024694141e-08
0, 0, 13, 1.121017323413298e-08
0, 0, 14, 3.486138488995039e-09
0, 0, 15, 6.069404534514433e-09
0, 0, 16, 2.048331637638512e-08
0, 0, 17, 5.585042650579908e-09
0, 0, 18, 8.227534209481746e-09
0, 0, 19, 1.122588866309115e-08
0, 0, 20, 1.739087451824162e-08
0, 0, 21, 1.028240070866104e-08
0, 0, 22, 1.236106150770411e-08
0, 0, 23, 3.180336349828394e-08
0, 0, 24, 2.328841786081171e-09
0, 0, 25, 1.973726782011909e-08
0, 0, 26, 1.181133857386385e-08
0, 0, 27, 1.190359544267494e-08
0, 0, 28, 2.732511550362915e-09
0, 0, 29, 6.805652930097494e-09
0, 0, 30, 8.719366562104369e-09
0, 0, 31, 4.130192188256387e-09
0, 0, 32, 1.339288235868707e-08
0, 0, 33, 1.727261889072906e-08
0, 0, 34, 1.139269922845187e-08
0, 0, 35, 8.610292923094676e-09
0, 0, 36, 1.059943954828668e-08
0, 0, 37, 9.522358901392636e-09
0, 0, 38, 8.261507922213696e-09
0, 0, 39, 2.180416736052848e-09
0, 0, 40, 3.840975093538646e-09
0, 0, 41, 1.212632128044788e-08
0, 0, 42, 6.993219336948187e-09
0, 0, 43, 8.114596106167937e-09
0, 0, 44, 1.015579975671699e-08
0, 0, 45, 1.934295390526586e-09
0, 0, 46, 4.862887426071438e-09
0, 0, 47, 6.923188244911671e-09
0, 0, 48, 8.212600377532908e-09
0, 0, 49, 9.306750037296752e-09
0, 1, 0, 5.034584749097348e-09
0, 1, 1, 2.69888698056775e-08
0, 1, 2, 3.459251773918481e-09
0, 1, 3, 8.82137118907167e-09
0, 1, 4, 5.265103464324739e-09
0, 1, 5, 7.452871653157445e-10
0, 1, 6, 2.004830790269807e-08
0, 1, 7, 9.102719467080078e-09
0, 1, 8, 2.432040346889153e-09
0, 1, 9, 8.002597695622171e-09
0, 1, 10, 2.322683201327891e-08
0, 1, 11, 1.589149434266801e-08
0, 1, 12, 1.585370057455293e-08
0, 1, 13, 1.785753767080678e-08
0, 1, 14, 2.660940268128797e-08
0, 1, 15, 7.090438014500933e-09
0, 1, 16, 7.096319087906977e-09
0, 1, 17, 5.788294732411714e-09
0, 1, 18, 6.432895105490388e-09
0, 1, 19, 1.357271894875112e-08
0, 1, 20, 1.631269164192872e-08
0, 1, 21, 1.325902676541091e-08
0, 1, 22, 1.728882459417491e-08
0, 1, 23, 1.282035366756418e-08
0, 1, 24, 1.106672709028089e-08
0, 1, 25, 1.928060555655975e-08
0, 1, 26, 8.461325862185731e-09
0, 1, 27, 9.990514193702893e-09
0, 1, 28, 2.335085902416267e-08
0, 1, 29, 8.595136158362493e-09
0, 1, 30, 6.598322777051635e-09
0, 1, 31, 3.105067136743855e-08
0, 1, 32, 1.106735147970994e-08
0, 1, 33, 4.915776674607741e-10
0, 1, 34, 1.343435052092445e-08
0, 1, 35, 1.94207991910389e-08
0, 1, 36, 6.875410463180742e-09
0, 1, 37, 7.118111877701949e-09
0, 1, 38, 1.38274751648737e-08
0, 1, 39, 1.69599072563642e-08
0, 1, 40, 1.248965553202197e-08
0, 1, 41, 1.813418393226129e-08
0, 1, 42, 5.146049808502084e-09
0, 1, 43, 5.134793479300015e-09
0, 1, 44, 1.391228110492193e-08
0, 1, 45, 1.052088993702682e-08
0, 1, 46, 5.896361177093468e-09
0, 1, 47, 4.375085627117414e-09
0, 1, 48, 1.04533022238229e-08
0, 1, 49, 1.733296839390164e-09
0, 2, 0, 3.107741974872624e-08
0, 2, 1, 2.248076569344448e-08
0, 2, 2, 1.677555205858994e-09
0, 2, 3, 1.712024655375899e-08
0, 2, 4, 1.697648599474633e-08
0, 2, 5, 5.263368407781854e-09
0, 2, 6, 5.975957506620944e-09
0, 2, 7, 8.164603215732313e-09
0, 2, 8, 1.244641367748045e-08
0, 2, 9, 1.066219645906585e-08
0, 2, 10, 1.025703610935125e-08
0, 2, 11, 1.484745126845155e-08
0, 2, 12, 2.160531487049866e-08
0, 2, 13, 4.027782551929704e-09
0, 2, 14, 1.55220725162053e-08
0, 2, 15, 1.383888204031791e-08
0, 2, 16, 5.186954421532164e-09
0, 2, 17, 1.871025112620828e-08
0, 2, 18, 1.059575449602335e-08
0, 2, 19, 1.149525985510991e-08
0, 2, 20, 1.315410447233489e-08
0, 2, 21, 8.248820293488279e-09
0, 2, 22, 9.498215547409927e-09
0, 2, 23, 1.474904554044087e-08
0, 2, 24, 2.206414428940207e-08
0, 2, 25, 7.476167240838549e-09
0, 2, 26, 9.387602695198893e-09
0, 2, 27, 2.311745017635758e-09
0, 2, 28, 7.571187232713328e-09
0, 2, 29, 5.814337900034161e-09
0, 2, 30, 9.002079970343857e-09
0, 2, 31, 3.718378049910598e-09
0, 2, 32, 1.249674497216802e-08
0, 2, 33, 1.185420384075542e-08
0, 2, 34, 8.733891831980145e-09
0, 2, 35, 5.935788749411586e-09
0, 2, 36, 3.655523439505259e-09
0, 2, 37, 9.55335810459701e-09
0, 2, 38, 5.876504616253442e-09
0, 2, 39, 9.836906400551015e-09
0, 2, 40, 2.805551702067532e-08
0, 2, 41, 6.486554626761176e-10
0, 2, 42, 5.217484222441726e-10
0, 2, 43, 1.24601937656621e-08
0, 2, 44, 5.894210008960954e-09
0, 2, 45, 3.747778087870302e-09
0, 2, 46, 7.954567671220047e-09
0, 2, 47, 7.415864811122219e-09
0, 2, 48, 3.755598942944971e-09
0, 2, 49, 2.150763345198925e-09
0, 3, 0, 2.755855321723288e-09
0, 3, 1, 1.013704853392028e-08
0, 3, 2, 1.044382624826312e-08
0, 3, 3, 6.949099073949583e-09
0, 3, 4, 2.261564446826014e-08
0, 3, 5, 1.258120008174046e-08
0, 3, 6, 1.449521658258845e-08
0, 3, 7, 8.278945529127668e-09
0, 3, 8, 1.455744147449423e-08
0, 3, 9, 1.774371405360853e-08
0, 3, 10, 1.548277239749041e-08
0, 3, 11, 1.716605879664712e-08
0, 3, 12, 6.325178603105996e-09
0, 3, 13, 8.652047966961618e-09
0, 3, 14, 9.018367386204318e-09
0, 3, 15, 1.00237960154459e-08
0, 3, 16, 8.378822080601367e-09
0, 3, 17, 2.296353152075881e-08
0, 3, 18, 1.326803467094351e-08
0, 3, 19, 1.386187342689027e-08
0, 3, 20, 8.552710539788677e-09
0, 3, 21, 3.392373715271901e-09
0, 3, 22, 6.885434000736268e-09
0, 3, 23, 1.443562336334026e-08
0, 3, 24, 6.575810562736706e-09
0, 3, 25, 1.761589540905106e-09
0, 3, 26, 3.828133188221727e-08
0, 3, 27, 5.911906075795059e-09
0, 3, 28, 2.00542604744669e-08
0, 3, 29, 7.94297960737822e-09
0, 3, 30, 1.064887289459193e-08
0, 3, 31, 1.14039986343073e-08
0, 3, 32, 8.694981623591502e-09
0, 3, 33, 1.288239293018023e-08
0, 3, 34, 4.16643830547514e-09
0, 3, 35, 9.603532413748894e-10
0, 3, 36, 9.692964653140734e-09
0, 3, 37, 1.041974861948347e-08
0, 3, 38, 5.535358837960302e-09
0, 3, 39, 1.344313727003055e-08
0, 3, 40, 1.032702923176032e-09
0, 3, 41, 9.214076612806821e-09
0, 3, 42, 4.666324660007604e-09
0, 3, 43, 3.191849007322389e-09
0, 3, 44, 1.217909550987883e-09
0, 3, 45, 1.40784583990694e-09
0, 3, 46, 4.279597565215454e-09
0, 3, 47, 8.954407881844872e-09
0, 3, 48, 2.533404774851533e-08
0, 3, 49, 4.582181745149683e-09
0, 4, 0, 6.111831929445088e-09
0, 4, 1, 4.071623482815312e-09
0, 4, 2, 5.497108102048287e-09
0, 4, 3, 8.593277200930061e-09
0, 4, 4, 1.289887574529303e-08
0, 4, 5, 1.121075765553314e-08
0, 4, 6, 1.330927990039754e-08
0, 4, 7, 5.897297317147832e-09
0, 4, 8, 9.331819761371207e-09
0, 4, 9, 1.626382584163366e-08
0, 4, 10, 1.857090126122785e-08
0, 4, 11, 9.011967172511959e-09
0, 4, 12, 1.816731831638663e-08
0, 4, 13, 0
0, 4, 14, 8.052351674336933e-09
0, 4, 15, 3.569521345170301e-09
0, 4, 16, 1.052461939821114e-08
0, 4, 17, 7.435073445805074e-09
0, 4, 18, 2.71897548920208e-09
0, 4, 19, 9.220679331178872e-09
0, 4, 20, 1.152493744882577e-08
0, 4, 21, 1.027990048640959e-08
0, 4, 22, 1.409876571045743e-08
0, 4, 23, 1.660313486695486e-08
0, 4, 24, 6.285476583656191e-09
0, 4, 25, 1.633040547233122e-08
0, 4, 26, 3.54200868635246e-09
0, 4, 27, 2.262142118070187e-08
0, 4, 28, 9.26543819446124e-09
0, 4, 29, 8.160624176412057e-09
0, 4, 30, 1.890629164336133e-08
0, 4, 31, 8.23424617379942e-09
0, 4, 32, 2.856961600627983e-08
0, 4, 33, 1.760263224070968e-08
0, 4, 34, 9.147804291842476e-09
0, 4, 35, 8.005506479946689e-09
0, 4, 36, 7.457788164799695e-09
0, 4, 37, 8.516493288368565e-09
0, 4, 38, 3.164715378645155e-09
0, 4, 39, 1.477882261013974e-09
0, 4, 40, 1.313121433810238e-08
0, 4, 41, 1.130973537044611e-08
0, 4, 42, 1.398350146786242e-08
0, 4, 43, 3.81039511054837e-09
0, 4, 44, 2.215679195671783e-08
0, 4, 45, 1.962456419590808e-09
0, 4, 46, 9.021551505838943e-09
0, 4, 47, 2.857355019258989e-09
0, 4, 48, 2.010179045441873e-08
0, 4, 49, 5.229519928207083e-09
0, 5, 0, 1.772352931084242e-08
0, 5, 1, 1.761734935712411e-08
0, 5, 2, 6.925274131930337e-09
0, 5, 3, 1.552050576947295e-08
0, 5, 4, 8.483496571898286e-09
0, 5, 5, 8.199558365618032e-09
0, 5, 6, 1.842106911453811e-08
0, 5, 7, 1.353743606102853e-08
0, 5, 8, 1.879727307141366e-08
0, 5, 9, 1.053310105803007e-09
0, 5, 10, 1.78600725320166e-08
0, 5, 11, 1.250981185307865e-08
0, 5, 12, 1.327096210701484e-08
0, 5, 13, 1.426004025972816e-08
0, 5, 14, 8.808179963182283e-09
0, 5, 15, 1.410790062550404e-08
0, 5, 16, 1.268897431572213e-08
0, 5, 17, 9.009833767947839e-09
0, 5, 18, 1.320772202717535e-08
0, 5, 19, 3.033510864725031e-08
0, 5, 20, 7.379368671678321e-09
0, 5, 21, 2.975048429831872e-09
0, 5, 22, 1.010562744596655e-08
0, 5, 23, 9.537076017807067e-09
0, 5, 24, 1.807009475385257e-08
0, 5, 25, 1.321397036235794e-08
0, 5, 26, 1.202141941547552e-08
0, 5, 27, 1.319676368183309e-08
0, 5, 28, 3.624062383522642e-09
0, 5, 29, 1.028708229711128e-08
0, 5, 30, 6.532399954295443e-09
0, 5, 31, 2.720023539737326e-09
0, 5, 32, 7.596340445559235e-09
0, 5, 33, 2.207760907424472e-08
0, 5, 34, 1.837931407067117e-08
0, 5, 35, 2.227717565972398e-08
0, 5, 36, 1.508647606840441e-08
0, 5, 37, 9.738415407412049e-09
0, 5, 38, 1.773931934678785e-08
0, 5, 39, 3.721840391435194e-09
0, 5, 40, 1.574020025429945e-08
0, 5, 41, 1.055020870666112e-08
0, 5, 42, 7.620712061395807e-09
0, 5, 43, 6.099205585030631e-09
0, 5, 44, 8.114891869581697e-09
0, 5, 45, 6.427718801660376e-09
0, 5, 46, 9.819453694603908e-09
0, 5, 47, 1.053245402005132e-08
0, 5, 48, 1.678730754406388e-08
0, 5, 49, 7.464252327338272e-09
0, 6, 0, 2.416018141104814e-08
0, 6, 1, 5.846045425528246e-09
0, 6, 2, 1.102931257435102e-08
0, 6, 3, 1.287037409980485e-08
0, 6, 4, 8.08325228973672e-09
0, 6, 5, 2.269877796834407e-08
0, 6, 6, 6.983145173222738e-09
0, 6, 7, 6.256040574470489e-09
0, 6, 8, 1.610434807730599e-08
0, 6, 9, 1.809945615605102e-08
0, 6, 10, 7.199084439690751e-09
0, 6, 11, 1.161946805439129e-08
0, 6, 12, 2.584291891594148e-08
0, 6, 13, 1.550908557135244e-08
0, 6, 14, 5.29791632786214e-09
0, 6, 15, 8.200887080533903e-09
0, 6, 16, 2.109844565723051e-08
0, 6, 17, 1.479552214078694e-08
0, 6, 18, 1.849605091308604e-08
0, 6, 19, 6.37347596921245e-09
0, 6, 20, 1.250157199983448e-09
0, 6, 21, 5.083008236539399e-09
0, 6, 22, 1.055607956601534e-08
0, 6, 23, 1.066454391462912e-08
0, 6, 24, 7.321709016849809e-09
0, 6, 25, 3.901733602873492e-09
0, 6, 26, 3.842787066332676e-08
0, 6, 27, 3.099866674460827e-08
0, 6, 28, 5.769802857713557e-09
0, 6, 29, 1.141732486331648e-08
0, 6, 30, 1.658311177266114e-08
0, 6, 31, 1.297518892329208e-08
0, 6, 32, 1.131672622278757e-08
0, 6, 33, 1.233644120191002e-08
0, 6, 34, 9.688202240454302e-09
0, 6, 35, 3.162195127970335e-08
0, 6, 36, 6.76861278137153e-09
0, 6, 37, 8.394297701386222e-09
0, 6, 38, 1.503247837320032e-08
0, 6, 39, 4.34870717214153e-09
0, 6, 40, 2.337732851742658e-08
0, 6, 41, 1.459585519114626e-08
0, 6, 42, 1.482253786377896e-08
0, 6, 43, 1.8367016352272e-08
0, 6, 44, 5.922975887528992e-09
0, 6, 45, 1.79418204737658e-08
0, 6, 46, 1.108950709038936e-08
0, 6, 47, 1.844223618263641e-08
0, 6, 48, 1.644536173905919e-09
0, 6, 49, 2.009577393380368e-09
0, 7, 0, 1.444149244633763e-08
0, 7, 1, 9.344949702949634e-09
0, 7, 2, 4.000267672665814e-09
0, 7, 3, 8.093009817855545e-09
0, 7, 4, 1.479348554767057e-08
0, 7, 5, 1.919869951905184e-08
0, 7, 6, 2.450663849629109e-08
0, 7, 7, 9.831873093446575e-09
0, 7, 8, 1.168713570365298e-08
0, 7, 9, 2.389476350117548e-08
0, 7, 10, 1.977155328347635e-09
0, 7, 11, 1.181875664002519e-08
0, 7, 12, 1.766814961001728e-08
0, 7, 13, 1.274149497021426e-08
0, 7, 14, 4.50174519883717e-09
0, 7, 15, 3.30482912147545e-08
0, 7, 16, 1.490939816051196e-08
0, 7, 17, 2.515707642203324e-08
0, 7, 18, 1.614992761744816e-08
0, 7, 19, 1.042534614192903e-09
0, 7, 20, 8.913346505323716e-09
0, 7, 21, 1.733666188385996e-08
0, 7, 22, 3.465126141577457e-08
0, 7, 23, 1.624839640612663e-08
0, 7, 24, 2.081202588044562e-08
0, 7, 25, 3.017984795405937e-08
0, 7, 26, 1.106566394071251e-08
0, 7, 27, 2.474287086329241e-08
0, 7, 28, 9.778157838979951e-09
0, 7, 29, 1.620837863924862e-08
0, 7, 30, 6.506559291352687e-09
0, 7, 31, 1.583645214964235e-08
0, 7, 32, 1.966848550694067e-08
0, 7, 33, 7.671678403653459e-09
0, 7, 34, 4.897207972476281e-09
0, 7, 35, 1.385272874188104e-08
0, 7, 36, 7.396805390413874e-09
0, 7, 37, 9.184225824299119e-09
0, 7, 38, 1.459079701504606e-08
0, 7, 39, 1.166332630475608e-08
0, 7, 40, 7.134236312822395e-09
0, 7, 41, 1.179716768717753e-09
0, 7, 42, 1.209474387309228e-08
0, 7, 43, 2.119518605070425e-08
0, 7, 44, 1.120822457068016e-08
0, 7, 45, 6.972171284758133e-09
0, 7, 46, 5.964502225452861e-09
0, 7, 47, 9.704886894112974e-10
0, 7, 48, 4.951661303209676e-09
0, 7, 49, 2.763768591762528e-08
0, 8, 0, 1.167781515931665e-08
0, 8, 1, 1.325383092165566e-08
0, 8, 2, 6.116738671124722e-09
0, 8, 3, 2.892276418364759e-09
0, 8, 4, 1.415030492779579e-08
0, 8, 5, 9.850625204421704e-09
0, 8, 6, 1.577957320364476e-08
0, 8, 7, 1.126373128101932e-08
0, 8, 8, 8.501981341169085e-09
0, 8, 9, 1.150103567937322e-08
0, 8, 10, 2.065684334695561e-08
0, 8, 11, 9.702563197322434e-09
0, 8, 12, 1.524257697838038e-08
0, 8, 13, 3.134349668698633e-08
0, 8, 14, 1.261877358160746e-08
0, 8, 15, 1.591819476232104e-08
0, 8, 16, 2.744189409042974e-08
0, 8, 17, 1.696879614598856e-08
0, 8, 18, 1.333238586198604e-08
0, 8, 19, 9.412689294663323e-09
0, 8, 20, 8.84654483002123e-09
0, 8, 21, 1.652970027521405e-08
0, 8, 22, 2.49721452405538e-08
0, 8, 23, 3.446498197945402e-09
0, 8, 24, 5.34080202285736e-09
0, 8, 25, 1.552580464192488e-08
0, 8, 26, 8.24695156609323e-09
0, 8, 27, 9.718148952231331e-09
0, 8, 28, 2.966115797420343e-09
0, 8, 29, 7.098848442410599e-08
0, 8, 30, 2.80541723185479e-08
0, 8, 31, 1.526946924457206e-08
0, 8, 32, 1.908282598606093e-08
0, 8, 33, 7.583154548740367e-09
0, 8, 34, 1.935894822224782e-08
0, 8, 35, 7.325544171266074e-09
0, 8, 36, 1.180484687779426e-08
0, 8, 37, 1.490824530492318e-08
0, 8, 38, 5.012729786812997e-09
0, 8, 39, 1.315922570910288e-08
0, 8, 40, 7.3750485718449e-09
0, 8, 41, 7.597995121955137e-09
0, 8, 42, 2.930994780214746e-09
0, 8, 43, 2.94798070399338e-08
0, 8, 44, 1.660160720007298e-08
0, 8, 45, 3.31738436720741e-09
0, 8, 46, 4.38454561546564e-09
0, 8, 47, 9.979521209402265e-09
0, 8, 48, 1.310218422645448e-08
0, 8, 49, 2.453751690723038e-08
0, 9, 0, 2.251947783804553e-08
0, 9, 1, 9.018424229623179e-09
0, 9, 2, 1.709452135401079e-08
0, 9, 3, 1.083632961140779e-09
0, 9, 4, 2.001462284795252e-08
0, 9, 5, 2.654202857499399e-09
0, 9, 6, 1.703704022304464e-08
0, 9, 7, 2.194642334529817e-08
0, 9, 8, 1.284529460576778e-08
0, 9, 9, 1.954063932885219e-08
0, 9, 10, 1.684515638089579e-08
0, 9, 11, 1.260072401976231e-08
0, 9, 12, 1.267800175952516e-08
0, 9, 13, 2.044725100347478e-08
0, 9, 14, 2.124800602132382e-08
0, 9, 15, 1.769172897070348e-08
0, 9, 16, 1.818422745714088e-08
0, 9, 17, 9.830035452296215e-09
0, 9, 18, 1.973368490837402e-08
0, 9, 19, 1.272973193522375e-08
0, 9, 20, 6.814399267085491e-09
0, 9, 21, 8.451509714291205e-09
0, 9, 22, 2.21005294065435e-08
0, 9, 23, 6.176370970223388e-09
0, 9, 24, 2.28631407139801e-08
0, 9, 25, 1.265237514758155e-08
0, 9, 26, 3.693322980780067e-08
0, 9, 27, 1.94070306491767e-08
0, 9, 28, 2.252244790668101e-08
0, 9, 29, 3.963010364316233e-09
0, 9, 30, 5.936019231711498e-09
0, 9, 31, 1.584886177852241e-08
0, 9, 32, 1.203277832928507e-08
0, 9, 33, 1.038168395695038e-08
0, 9, 34, 1.281772377126345e-08
0, 9, 35, 9.394509170590482e-09
0, 9, 36, 6.910156447048621e-09
0, 9, 37, 2.224163431208126e-08
0, 9, 38, 2.927662201557268e-08
0, 9, 39, 7.757489761672787e-09
0, 9, 40, 5.511973100169598e-09
0, 9, 41, 5.126298496804793e-09
0, 9, 42, 1.988265019292612e-08
0, 9, 43, 1.932416182626184e-08
0, 9, 44, 2.831179557460928e-08
0, 9, 45, 4.625797078716687e-09
0, 9, 46, 1.761723567028639e-08
0, 9, 47, 1.591172882342562e-08
0, 9, 48, 1.056985077241279e-08
0, 9, 49, 6.477770764234947e-09
0, 10, 0, 1.131296389900172e-08
0, 10, 1, 1.635760504825612e-08
0, 10, 2, 8.78360584266602e-09
0, 10, 3, 1.349247202853121e-08
0, 10, 4, 1.519821601903004e-08
0, 10, 5, 7.327641160514986e-09
0, 10, 6, 1.502687752008569e-08
0, 10, 7, 2.279535138427491e-08
0, 10, 8, 1.395808713056113e-08
0, 10, 9, 1.355665091296032e-08
0, 10, 10, 2.004416188583491e-08
0, 10, 11, 4.250690022189474e-09
0, 10, 12, 1.476583300075163e-08
0, 10, 13, 1.794594162163321e-08
0, 10, 14, 1.724962928051355e-08
0, 10, 15, 1.168679553131824e-08
0, 10, 16, 3.344566579244201e-08
0, 10, 17, 5.04020691849405e-09
0, 10, 18, 1.533930493735625e-08
0, 10, 19, 8.953443320081078e-09
0, 10, 20, 2.095767293042172e-08
0, 10, 21, 1.592534282224278e-08
0, 10, 22, 2.720737235506476e-08
0, 10, 23, 1.591204856765671e-08
0, 10, 24, 1.394584003833188e-08
0, 10, 25, 9.366118547404767e-09
0, 10, 26, 4.706390388520276e-09
0, 10, 27, 1.522531434261509e-08
0, 10, 28, 1.403958016510387e-08
0, 10, 29, 3.517394731034074e-08
0, 10, 30, 3.80661155929829e-08
0, 10, 31, 9.702950443113423e-09
0, 10, 32, 1.145580341699315e-08
0, 10, 33, 2.158902034921084e-08
0, 10, 34, 1.601205923407178e-08
0, 10, 35, 1.135853455735969e-08
0, 10, 36, 1.619392264728958e-08
0, 10, 37, 8.460369294027714e-09
0, 10, 38, 2.021438305632728e-08
0, 10, 39, 1.437724339581337e-08
0, 10, 40, 9.691503599640328e-09
0, 10, 41, 1.102647306794324e-08
0, 10, 42, 5.181942874799006e-09
0, 10, 43, 1.211427624880912e-09
0, 10, 44, 1.738169252973876e-08
0, 10, 45, 2.333820070532511e-08
0, 10, 46, 2.262205711645038e-08
0, 10, 47, 1.976057362185202e-08
0, 10, 48, 1.538174920767688e-08
0, 10, 49, 8.090659697757019e-09
0, 11, 0, 1.091169998801433e-08
0, 11, 1, 1.78616144097532e-08
0, 11, 2, 3.363101130915425e-09
0, 11, 3, 1.55350523556308e-08
0, 11, 4, 2.171412738505296e-08
0, 11, 5, 1.7628101645073e-08
0, 11, 6, 1.311324737685027e-08
0, 11, 7, 2.608722660113472e-08
0, 11, 8, 1.538788829691384e-08
0, 11, 9, 1.445534270061444e-08
0, 11, 10, 1.37579903025653e-08
0, 11, 11, 1.93647995416768e-08
0, 11, 12, 1.265228632973958e-08
0, 11, 13, 8.902527048881836e-10
0, 11, 14, 1.049779019268726e-08
0, 11, 15, 9.372622677972231e-09
0, 11, 16, 4.293243094366517e-09
0, 11, 17, 2.70490585485561e-09
0, 11, 18, 6.385336259739915e-09
0, 11, 19, 1.392333714989036e-08
0, 11, 20, 1.074518074517528e-08
0, 11, 21, 1.433367646797024e-08
0, 11, 22, 1.654647618920535e-08
0, 11, 23, 1.037690910976607e-08
0, 11, 24, 1.775844893359135e-08
0, 11, 25, 4.598139824452119e-08
0, 11, 26, 2.806683774281282e-08
0, 11, 27, 5.626553001292223e-09
0, 11, 28, 1.649755998478497e-09
0, 11, 29, 1.396180770996125e-08
0, 11, 30, 1.234559121598977e-08
0, 11, 31, 1.717580921933859e-08
0, 11, 32, 1.023429696545008e-08
0, 11, 33, 2.379407071373407e-08
0, 11, 34, 1.557579487609928e-08
0, 11, 35, 9.508592135887284e-09
0, 11, 36, 1.607106625556298e-08
0, 11, 37, 2.405823540385654e-09
0, 11, 38, 5.628590926676225e-09
0, 11, 39, 5.502386102307355e-09
0, 11, 40, 1.712102282169781e-08
0, 11, 41, 8.199599221825338e-09
0, 11, 42, 1.483254141732004e-08
0, 11, 43, 4.585296053960519e-08
0, 11, 44, 1.161679197281273e-08
0, 11, 45, 2.895540340830394e-08
0, 11, 46, 1.095157653452361e-08
0, 11, 47, 9.108883425312797e-09
0, 11, 48, 1.610697886178514e-08
0, 11, 49, 1.073248423466566e-08
0, 12, 0, 1.930293436203101e-08
0, 12, 1, 9.39466282545709e-09
0, 12, 2, 1.793653758852543e-08
0, 12, 3, 2.045275948603376e-08
0, 12, 4, 1.222835877001671e-08
0, 12, 5, 2.309102420383624e-08
0, 12, 6, 2.130599696670288e-08
0, 12, 7, 1.780593628097904e-08
0, 12, 8, 2.033787183108871e-08
0, 12, 9, 1.552759343326215e-08
0, 12, 10, 2.72457771899326e-08
0, 12, 11, 2.726772230232655e-08
0, 12, 12, 1.198364873999935e-08
0, 12, 13, 1.665240034753879e-08
0, 12, 14, 1.042991470967536e-08
0, 12, 15, 7.801554957609369e-09
0, 12, 16, 3.701975259673418e-08
0, 12, 17, 1.103198776775116e-08
0, 12, 18, 5.855139040278345e-09
0, 12, 19, 1.971443097659176e-08
0, 12, 20, 1.305361863046528e-08
0, 12, 21, 2.457878345296649e-08
0, 12, 22, 2.295088563641912e-08
0, 12, 23, 1.905908675325918e-08
0, 12, 24, 1.957074147185267e-08
0, 12, 25, 1.619258505058951e-08
0, 12, 26, 1.277504679819685e-08
0, 12, 27, 1.498067803140657e-08
0, 12, 28, 1.589955367364837e-08
0, 12, 29, 2.136748200598504e-08
0, 12, 30, 8.596788170223135e-09
0, 12, 31, 3.220723598928998e-08
0, 12, 32, 6.531166274470479e-09
0, 12, 33, 8.123664407833076e-09
0, 12, 34, 8.211034518978977e-09
0, 12, 35, 1.285102424475326e-08
0, 12, 36, 1.211844491422198e-08
0, 12, 37, 1.213519507103911e-08
0, 12, 38, 1.463200405282805e-08
0, 12, 39, 1.373656832726056e-08
0, 12, 40, 1.952173889208098e-08
0, 12, 41, 1.600598054096736e-08
0, 12, 42, 1.414235839547473e-08
0, 12, 43, 1.120096371209911e-08
0, 12, 44, 1.102257396468076e-08
0, 12, 45, 1.455067710764979e-08
0, 12, 46, 1.716227271408854e-09
0, 12, 47, 2.066880178119845e-08
0, 12, 48, 1.022545248474671e-08
0, 12, 49, 2.044062874517749e-08
0, 13, 0, 1.136296923220925e-08
0, 13, 1, 3.91310166492076e-08
0, 13, 2, 9.351520446898576e-09
0, 13, 3, 1.697614493423316e-08
0, 13, 4, 9.051173144314362e-09
0, 13, 5, 5.988578077875673e-09
0, 13, 6, 1.346868838680848e-08
0, 13, 7, 1.164208995874105e-08
0, 13, 8, 1.056923260023268e-08
0, 13, 9, 1.957621975634538e-08
0, 13, 10, 2.644661023509798e-08
0, 13, 11, 1.568114527117359e-08
0, 13, 12, 9.423891000892581e-09
0, 13, 13, 2.05456274215976e-08
0, 13, 14, 1.34972282239687e-08
0, 13, 15, 1.753203271448456e-08
0, 13, 16, 8.931775319354074e-09
0, 13, 17, 2.507828966713532e-08
0, 13, 18, 2.620312322676455e-08
0, 13, 19, 1.513728697943861e-08
0, 13, 20, 2.992149816805068e-08
0, 13, 21, 1.276253946969064e-08
0, 13, 22, 1.502886703974582e-08
0, 13, 23, 8.611158008875464e-09
0, 13, 24, 2.698691581315416e-08
0, 13, 25, 1.282868566931938e-08
0, 13, 26, 3.822525940222476e-08
0, 13, 27, 1.993981157966118e-08
0, 13, 28, 1.807861593761118e-08
0, 13, 29, 4.135514686254282e-08
0, 13, 30, 6.227170334938137e-09
0, 13, 31, 1.554827022687277e-08
0, 13, 32, 1.040122210582695e-08
0, 13, 33, 1.157190432365951e-08
0, 13, 34, 9.341695417219853e-09
0, 13, 35, 1.105693758773896e-08
0, 13, 36, 3.761239764088486e-09
0, 13, 37, 8.584167154879196e-09
0, 13, 38, 6.403342744931706e-09
0, 13, 39, 8.779242222090033e-09
0, 13, 40, 3.512467650068629e-09
0, 13, 41, 1.23556462838792e-08
0, 13, 42, 1.708278674072972e-08
0, 13, 43, 1.206269306663899e-08
0, 13, 44, 1.217622713767241e-08
0, 13, 45, 8.503220350064566e-09
0, 13, 46, 1.044019182216971e-08
0, 13, 47, 1.072504840493593e-08
0, 13, 48, 8.945653107161888e-09
0, 13, 49, 6.100267846420593e-09
0, 14, 0, 1.218798395541398e-08
0, 14, 1, 1.582507280772916e-08
0, 14, 2, 9.758273300519704e-09
0, 14, 3, 2.750971894727172e-08
0, 14, 4, 6.382425254969348e-09
0, 14, 5, 1.260843873751583e-08
0, 14, 6, 1.299428653567247e-08
0, 14, 7, 3.487471289531641e-08
0, 14, 8, 3.732915088150435e-10
0, 14, 9, 4.633716965685153e-09
0, 14, 10, 2.264091492065745e-08
0, 14, 11, 1.100144508825451e-08
0, 14, 12, 1.081202416486349e-08
0, 14, 13, 1.715031672233636e-08
0, 14, 14, 7.390550837982346e-09
0, 14, 15, 1.484337097679145e-08
0, 14, 16, 1.129525006859922e-08
0, 14, 17, 1.709686081596828e-08
0, 14, 18, 1.990004072638385e-08
0, 14, 19, 2.554842382096467e-08
0, 14, 20, 1.252403070139962e-08
0, 14, 21, 8.079623192713825e-09
0, 14, 22, 6.280066244812588e-09
0, 14, 23, 2.096203211010561e-08
0, 14, 24, 2.396364884305058e-08
0, 14, 25, 2.243637275967103e-08
0, 14, 26, 1.991262976730468e-08
0, 14, 27, 2.896287121245678e-08
0, 14, 28, 1.973492658180476e-08
0, 14, 29, 1.431437013366121e-08
0, 14, 30, 3.316361940619572e-08
0, 14, 31, 1.589425835391012e-08
0, 14, 32, 1.23235865956417e-08
0, 14, 33, 8.360444780919352e-09
0, 14, 34, 5.689903659344964e-09
0, 14, 35, 1.966668250474868e-08
0, 14, 36, 1.892275314219205e-08
0, 14, 37, 1.533055815627904e-08
0, 14, 38, 7.594951334510824e-09
0, 14, 39, 1.812333039197256e-08
0, 14, 40, 1.934660254221399e-08
0, 14, 41, 7.452013228714804e-09
0, 14, 42, 8.185777389257964e-09
0, 14, 43, 9.007058210386276e-09
0, 14, 44, 7.424544978817949e-09
0, 14, 45, 6.965382937096365e-09
0, 14, 46, 1.709831609630896e-09
0, 14, 47, 7.448516470276445e-09
0, 14, 48, 1.054158538238426e-08
0, 14, 49, 1.612040612108956e-09
0, 15, 0, 3.579163854183776e-09
0, 15, 1, 3.748036103701224e-09
0, 15, 2, 1.482381506434649e-08
0, 15, 3, 1.221598200373819e-08
0, 15, 4, 2.579950120207286e-08
0, 15, 5, 2.496714124333721e-08
0, 15, 6, 1.672597882418358e-08
0, 15, 7, 1.719070397143696e-08
0, 15, 8, 1.521438086626858e-08
0, 15, 9, 1.900032131629814e-09
0, 15, 10, 9.665265032765546e-09
0, 15, 11, 2.946436872264258e-08
0, 15, 12, 2.84398513628048e-08
0, 15, 13, 1.124866511048594e-08
0, 15, 14, 9.233692033205898e-09
0, 15, 15, 6.880474412440662e-09
0, 15, 16, 3.086970679078149e-08
0, 15, 17, 2.369868212781512e-08
0, 15, 18, 2.137914023592202e-08
0, 15, 19, 2.761806960904778e-08
0, 15, 20, 5.807651604072817e-08
0, 15, 21, 1.27712524999879e-08
0, 15, 22, 1.125303317195403e-08
0, 15, 23, 3.015269811612598e-08
0, 15, 24, 2.58635282079922e-08
0, 15, 25, 3.561700268051027e-08
0, 15, 26, 2.193925219273751e-08
0, 15, 27, 1.900550472555551e-08
0, 15, 28, 3.135093606942974e-08
0, 15, 29, 1.195865895198267e-08
0, 15, 30, 2.233112539329341e-08
0, 15, 31, 2.181493563568893e-08
0, 15, 32, 3.688985117378252e-08
0, 15, 33, 2.749026961623713e-08
0, 15, 34, 7.331606877158947e-09
0, 15, 35, 1.595999421510896e-08
0, 15, 36, 2.034218127278109e-08
0, 15, 37, 4.647452200856605e-08
0, 15, 38, 2.962624989777396e-08
0, 15, 39, 2.919014185920332e-08
0, 15, 40, 7.802701595949202e-09
0, 15, 41, 1.207390543100928e-08
0, 15, 42, 3.552517569005431e-08
0, 15, 43, 2.647677410649862e-09
0, 15, 44, 1.039740382680066e-08
0, 15, 45, 2.946082311439113e-08
0, 15, 46, 8.553980634928848e-09
0, 15, 47, 6.378611860924366e-09
0, 15, 48, 7.223264653077877e-09
0, 15, 49, 6.395783458401638e-09
0, 16, 0, 2.669469267857494e-08
0, 16, 1, 2.549543509644536e-08
0, 16, 2, 1.424373774483456e-08
0, 16, 3, 1.790793113798372e-08
0, 16, 4, 3.746561727524522e-09
0, 16, 5, 2.17490114806651e-08
0, 16, 6, 8.565522513492851e-09
0, 16, 7, 2.622927874895709e-09
0, 16, 8, 3.5702615974742e-08
0, 16, 9, 9.716337068255143e-09
0, 16, 10, 1.656984238707082e-08
0, 16, 11, 2.658861752991015e-08
0, 16, 12, 2.271978161161314e-08
0, 16, 13, 1.922515480146103e-08
0, 16, 14, 1.517916281557063e-08
0, 16, 15, 1.261249327200176e-08
0, 16, 16, 1.569503460530086e-08
0, 16, 17, 1.356339396352269e-08
0, 16, 18, 1.724990816853733e-08
0, 16, 19, 1.136082161679042e-08
0, 16, 20, 7.112103794781888e-09
0, 16, 21, 1.871395127750475e-08
0, 16, 22, 9.956353075324387e-09
0, 16, 23, 1.52996459945598e-08
0, 16, 24, 1.249895564825465e-08
0, 16, 25, 2.760419093306155e-08
0, 16, 26, 2.825604994427522e-08
0, 16, 27, 1.07051691955462e-08
0, 16, 28, 1.619162937060992e-08
0, 16, 29, 1.239649449757962e-08
0, 16, 30, 2.696939027657663e-08
0, 16, 31, 1.119487347267523e-08
0, 16, 32, 1.394918935915257e-08
0, 16, 33, 7.855104122711509e-09
0, 16, 34, 3.175692242507466e-08
0, 16, 35, 1.870462895681158e-08
0, 16, 36, 6.8964451926945e-09
0, 16, 37, 6.793785978231881e-09
0, 16, 38, 1.57661936839304e-08
0, 16, 39, 2.770028117993206e-08
0, 16, 40, 1.118512837905428e-08
0, 16, 41, 1.389347858982148e-09
0, 16, 42, 8.8610878634654e-09
0, 16, 43, 8.548210139736057e-09
0, 16, 44, 1.534226257149385e-08
0, 16, 45, 5.154804583185069e-09
0, 16, 46, 1.677842575986688e-08
0, 16, 47, 1.179207664847581e-08
0, 16, 48, 8.130839113107413e-09
0, 16, 49, 1.283178274746888e-08
0, 17, 0, 1.679854122471625e-08
0, 17, 1, 1.324727438856144e-08
0, 17, 2, 1.185873799158799e-08
0, 17, 3, 2.91232122862084e-08
0, 17, 4, 2.900692841478758e-08
0, 17, 5, 1.589209119856605e-08
0, 17, 6, 3.763635092468576e-08
0, 17, 7, 1.487700274083181e-08
0, 17, 8, 1.079530775882631e-08
0, 17, 9, 7.989101824534828e-09
0, 17, 10, 1.044038189235152e-08
0, 17, 11, 1.749659084282484e-08
0, 17, 12, 2.044818003810178e-08
0, 17, 13, 1.850786368606805e-08
0, 17, 14, 2.592026149272897e-09
0, 17, 15, 5.797366142701321e-09
0, 17, 16, 2.026819956313375e-08
0, 17, 17, 1.639936009212306e-08
0, 17, 18, 1.108331737498247e-08
0, 17, 19, 1.903821988946675e-08
0, 17, 20, 2.423416667340916e-08
0, 17, 21, 1.537758720360216e-08
0, 17, 22, 1.715992326012383e-08
0, 17, 23, 6.219448511757264e-09
0, 17, 24, 2.689087708063198e-08
0, 17, 25, 2.061785941975813e-08
0, 17, 26, 2.915457564256485e-08
0, 17, 27, 1.290334772363622e-08
0, 17, 28, 2.46022011651803e-08
0, 17, 29, 3.053050079415698e-08
0, 17, 30, 1.342861644104687e-08
0, 17, 31, 8.757889524702023e-09
0, 17, 32, 1.997578280565904e-08
0, 17, 33, 2.322693504197559e-08
0, 17, 34, 2.255634612424728e-08
0, 17, 35, 1.19525962460898e-08
0, 17, 36, 4.429043354292617e-09
0, 17, 37, 3.156226213718583e-08
0, 17, 38, 1.654337289380692e-08
0, 17, 39, 2.902254259140591e-08
0, 17, 40, 1.187770770627594e-08
0, 17, 41, 7.121504719265204e-09
0, 17, 42, 6.021299459035845e-09
0, 17, 43, 1.213486733320224e-08
0, 17, 44, 1.502498747640857e-08
0, 17, 45, 9.388315014291493e-09
0, 17, 46, 2.551054656407814e-08
0, 17, 47, 1.218465062180485e-08
0, 17, 48, 5.074710429653351e-09
0, 17, 49, 5.822493598373057e-09
0, 18, 0, 1.983067932087579e-08
0, 18, 1, 9.451565752272018e-09
0, 18, 2, 7.075532604261525e-09
0, 18, 3, 3.884623112071495e-08
0, 18, 4, 3.72310573482082e-08
0, 18, 5, 7.837472892902042e-09
0, 18, 6, 1.400050031463707e-08
0, 18, 7, 4.206518688931737e-09
0, 18, 8, 3.454016095361112e-08
0, 18, 9, 8.648105342956569e-09
0, 18, 10, 2.358241601996269e-08
0, 18, 11, 2.882573824081192e-08
0, 18, 12, 1.87312707566889e-08
0, 18, 13, 2.010165189858526e-08
0, 18, 14, 2.231097440130725e-08
0, 18, 15, 3.545089111156585e-09
0, 18, 16, 8.206686885614545e-09
0, 18, 17, 1.850881048426345e-08
0, 18, 18, 1.844130181893888e-08
0, 18, 19, 2.456491365876445e-08
0, 18, 20, 1.089772272422351e-08
0, 18, 21, 3.651461355502761e-08
0, 18, 22, 2.020386347112435e-08
0, 18, 23, 1.992454379262654e-08
0, 18, 24, 4.065986658474685e-08
0, 18, 25, 1.29955726180242e-08
