# TOPAS Version: 3.7
# Parameter File: TestingDose4.txt
# Results for scorer TestingDose4
# Scored in component: Phantom
# X in 50 bins of 0.1 cm
# Y in 50 bins of 0.1 cm
# Z in 50 bins of 0.1 cm
# DoseToMedium ( Gy ) : Sum   
0, 0, 0, 8.789579730716923e-09
0, 0, 1, 2.055603154360597e-08
0, 0, 2, 2.885744443403837e-08
0, 0, 3, 1.249084835563963e-08
0, 0, 4, 8.583131538841826e-09
0, 0, 5, 5.234475963789009e-09
0, 0, 6, 6.224085691286518e-09
0, 0, 7, 1.546290206988488e-09
0, 0, 8, 5.706433103824793e-09
0, 0, 9, 4.499375094724201e-09
0, 0, 10, 8.442331278502024e-09
0, 0, 11, 2.520027075902931e-09
0, 0, 12, 5.529936952797243e-09
0, 0, 13, 2.422553713188336e-08
0, 0, 14, 9.55157908322235e-09
0, 0, 15, 7.271260038521632e-09
0, 0, 16, 1.690019790778763e-09
0, 0, 17, 9.835273040437187e-09
0, 0, 18, 8.522833105928385e-09
0, 0, 19, 9.198719119751786e-09
0, 0, 20, 1.188633191873123e-08
0, 0, 21, 7.846110428033626e-09
0, 0, 22, 9.506640807899203e-09
0, 0, 23, 7.414092895174917e-09
0, 0, 24, 4.990653224012931e-09
0, 0, 25, 6.673779306964889e-09
0, 0, 26, 1.853201503365653e-08
0, 0, 27, 1.797572934947311e-08
0, 0, 28, 2.225757889107172e-08
0, 0, 29, 3.237760726193528e-09
0, 0, 30, 1.951856898330107e-09
0, 0, 31, 1.004805483262317e-08
0, 0, 32, 7.433554660707387e-09
0, 0, 33, 7.144496994015981e-09
0, 0, 34, 1.009499683846116e-08
0, 0, 35, 9.155891156353846e-09
0, 0, 36, 9.415685120472972e-09
0, 0, 37, 1.083431655501954e-08
0, 0, 38, 8.139124929584796e-09
0, 0, 39, 1.41276910170518e-08
0, 0, 40, 7.114165700983222e-09
0, 0, 41, 1.498171720015762e-08
0, 0, 42, 5.737030850383462e-09
0, 0, 43, 2.293933265562487e-09
0, 0, 44, 7.400438040150448e-09
0, 0, 45, 1.060380228068425e-08
0, 0, 46, 1.107395153354673e-08
0, 0, 47, 1.544055727720206e-08
0, 0, 48, 5.658159718535671e-09
0, 0, 49, 5.569468886079676e-09
0, 1, 0, 2.299674939365559e-08
0, 1, 1, 2.334725746067079e-09
0, 1, 2, 1.754877665405274e-08
0, 1, 3, 1.553391548725358e-08
0, 1, 4, 9.950230861477394e-09
0, 1, 5, 1.198124088830355e-08
0, 1, 6, 1.464583121446594e-08
0, 1, 7, 3.905662460113035e-09
0, 1, 8, 1.251639325516862e-08
0, 1, 9, 1.287896633783703e-08
0, 1, 10, 1.794104242947014e-08
0, 1, 11, 1.013388306603247e-08
0, 1, 12, 2.752334893330044e-08
0, 1, 13, 1.850435893402391e-08
0, 1, 14, 9.637950437735299e-10
0, 1, 15, 0
0, 1, 16, 1.224425894008618e-08
0, 1, 17, 4.230193972887264e-09
0, 1, 18, 3.492371503099889e-09
0, 1, 19, 9.042349091714641e-09
0, 1, 20, 1.514331238183786e-08
0, 1, 21, 6.710326960757129e-09
0, 1, 22, 3.135356418937363e-09
0, 1, 23, 1.166326502044512e-08
0, 1, 24, 1.921810932614676e-09
0, 1, 25, 1.473689881237306e-08
0, 1, 26, 3.895976430356995e-09
0, 1, 27, 5.480302878169141e-09
0, 1, 28, 1.84452204621266e-08
0, 1, 29, 8.320246713822144e-09
0, 1, 30, 4.329200609110018e-10
0, 1, 31, 9.074129891928351e-09
0, 1, 32, 6.487947956657081e-09
0, 1, 33, 9.53653422897105e-09
0, 1, 34, 2.111732833043334e-08
0, 1, 35, 1.71448544250552e-08
0, 1, 36, 2.770229157178505e-09
0, 1, 37, 6.691644571787947e-09
0, 1, 38, 4.440331990984703e-10
0, 1, 39, 9.696186076268987e-09
0, 1, 40, 8.931233530518057e-09
0, 1, 41, 1.993824660928567e-08
0, 1, 42, 1.280710204554225e-08
0, 1, 43, 6.882267644670037e-09
0, 1, 44, 6.498610094496371e-09
0, 1, 45, 9.521949451141154e-09
0, 1, 46, 4.70214400749569e-09
0, 1, 47, 1.761220724816326e-09
0, 1, 48, 3.268857629024069e-09
0, 1, 49, 1.692075701775764e-09
0, 2, 0, 1.668844973323758e-08
0, 2, 1, 5.551338055909127e-09
0, 2, 2, 1.894042611638724e-08
0, 2, 3, 3.452967911599103e-09
0, 2, 4, 3.27144600298368e-09
0, 2, 5, 1.804248483949777e-08
0, 2, 6, 5.294373384145956e-09
0, 2, 7, 1.123155612958726e-08
0, 2, 8, 1.454436659997782e-08
0, 2, 9, 2.463715231826313e-09
0, 2, 10, 1.172916608283003e-08
0, 2, 11, 2.491128192616543e-08
0, 2, 12, 1.10523545870933e-08
0, 2, 13, 7.189820294684068e-09
0, 2, 14, 4.591306002055262e-09
0, 2, 15, 7.167714421996152e-09
0, 2, 16, 9.866939265634755e-09
0, 2, 17, 9.970126058078677e-09
0, 2, 18, 1.172739860777483e-08
0, 2, 19, 7.25373228149806e-09
0, 2, 20, 1.051490805537014e-08
0, 2, 21, 1.240935088020478e-08
0, 2, 22, 1.407795480190543e-08
0, 2, 23, 4.128523745094981e-09
0, 2, 24, 2.402143195467943e-08
0, 2, 25, 1.316316122768058e-08
0, 2, 26, 9.931014233188762e-09
0, 2, 27, 1.016404826970074e-08
0, 2, 28, 7.512622746119746e-10
0, 2, 29, 1.456715370551365e-08
0, 2, 30, 4.970999611941807e-09
0, 2, 31, 1.980674468882171e-08
0, 2, 32, 1.363664203779535e-08
0, 2, 33, 1.260153759119476e-08
0, 2, 34, 5.406760816839551e-09
0, 2, 35, 5.961409588195465e-09
0, 2, 36, 9.896414354670924e-09
0, 2, 37, 9.705856562902682e-09
0, 2, 38, 1.013901229640624e-08
0, 2, 39, 7.975464733078752e-09
0, 2, 40, 1.857188713927371e-08
0, 2, 41, 1.533843829726322e-09
0, 2, 42, 3.212887733639036e-09
0, 2, 43, 1.010551820002092e-08
0, 2, 44, 1.009149830366596e-08
0, 2, 45, 7.301908855339434e-09
0, 2, 46, 2.10443884540723e-09
0, 2, 47, 2.001691790098903e-08
0, 2, 48, 7.578694116716633e-09
0, 2, 49, 6.590907819514769e-10
0, 3, 0, 6.850603639918518e-09
0, 3, 1, 9.267425937764528e-09
0, 3, 2, 3.304944229398643e-08
0, 3, 3, 9.747774143420429e-09
0, 3, 4, 1.789550174713384e-09
0, 3, 5, 8.225908842973695e-09
0, 3, 6, 1.810116323497368e-08
0, 3, 7, 7.796773893176123e-09
0, 3, 8, 1.297146745571354e-08
0, 3, 9, 1.239965286004008e-08
0, 3, 10, 6.225174598029071e-09
0, 3, 11, 1.158547835444779e-08
0, 3, 12, 1.772143676248561e-08
0, 3, 13, 1.720252562620317e-08
0, 3, 14, 7.397950585463775e-10
0, 3, 15, 7.628127463021883e-09
0, 3, 16, 1.519191172860701e-08
0, 3, 17, 1.529774884545532e-08
0, 3, 18, 1.347404321450085e-08
0, 3, 19, 1.45937653073247e-08
0, 3, 20, 1.014131800758378e-08
0, 3, 21, 1.116168579784471e-08
0, 3, 22, 1.997754184301925e-09
0, 3, 23, 2.192118486732397e-08
0, 3, 24, 7.679231472934589e-09
0, 3, 25, 6.564997434566067e-09
0, 3, 26, 1.850736452979618e-08
0, 3, 27, 1.617493161631955e-08
0, 3, 28, 8.995482581042324e-09
0, 3, 29, 1.020391149353372e-08
0, 3, 30, 9.781871312952717e-09
0, 3, 31, 1.486648315562888e-08
0, 3, 32, 1.59890216622216e-08
0, 3, 33, 8.021554087633831e-09
0, 3, 34, 1.379639247289788e-08
0, 3, 35, 6.18462969725897e-09
0, 3, 36, 2.788483000060182e-09
0, 3, 37, 5.956328763545571e-09
0, 3, 38, 5.91424420548492e-09
0, 3, 39, 8.329086753633419e-09
0, 3, 40, 4.282667998012357e-09
0, 3, 41, 1.088892798151164e-08
0, 3, 42, 7.330648976733301e-09
0, 3, 43, 1.429183527079658e-08
0, 3, 44, 3.763407807610974e-09
0, 3, 45, 1.922424353040242e-08
0, 3, 46, 3.186979347091778e-09
0, 3, 47, 4.560339661452417e-09
0, 3, 48, 3.935380910036201e-09
0, 3, 49, 4.969618050409963e-09
0, 4, 0, 1.275486471996601e-08
0, 4, 1, 9.42857347752124e-09
0, 4, 2, 1.217070710879398e-08
0, 4, 3, 1.621980594279648e-08
0, 4, 4, 5.057395058294389e-10
0, 4, 5, 2.428870971016295e-08
0, 4, 6, 7.694787917955637e-09
0, 4, 7, 1.148494810365719e-08
0, 4, 8, 1.207261313140862e-08
0, 4, 9, 6.292524279416511e-09
0, 4, 10, 8.76989325604427e-09
0, 4, 11, 1.559286566532592e-08
0, 4, 12, 1.242237868126495e-08
0, 4, 13, 2.075898919429164e-08
0, 4, 14, 1.975478802762609e-08
0, 4, 15, 9.506931242242445e-09
0, 4, 16, 8.506100712679654e-09
0, 4, 17, 1.003181204772829e-09
0, 4, 18, 7.960630377112921e-09
0, 4, 19, 8.200650825074263e-09
0, 4, 20, 9.993587291035055e-09
0, 4, 21, 1.627872414644571e-08
0, 4, 22, 3.259469849581365e-08
0, 4, 23, 6.146454012423419e-09
0, 4, 24, 1.20538299341888e-08
0, 4, 25, 2.927178277545295e-09
0, 4, 26, 3.536214165933416e-08
0, 4, 27, 4.332138647811234e-09
0, 4, 28, 1.76571450793972e-08
0, 4, 29, 1.090991030849864e-08
0, 4, 30, 7.60589280446311e-09
0, 4, 31, 9.4708116904485e-09
0, 4, 32, 8.449555721767865e-09
0, 4, 33, 1.073198152568011e-08
0, 4, 34, 1.669170757168104e-08
0, 4, 35, 1.340332733690275e-08
0, 4, 36, 6.503031890758848e-09
0, 4, 37, 5.804215774674049e-09
0, 4, 38, 7.885565977971964e-09
0, 4, 39, 1.475238065040685e-08
0, 4, 40, 1.620708722782638e-08
0, 4, 41, 5.594371632611228e-09
0, 4, 42, 8.22645596088023e-09
0, 4, 43, 1.338051802690643e-08
0, 4, 44, 4.586922841554042e-09
0, 4, 45, 1.181579456499549e-08
0, 4, 46, 1.263495530423597e-08
0, 4, 47, 1.274511518545296e-08
0, 4, 48, 6.661923013240312e-09
0, 4, 49, 1.520030434853936e-09
0, 5, 0, 1.117408654494056e-08
0, 5, 1, 1.346451750094957e-08
0, 5, 2, 6.094642568399422e-09
0, 5, 3, 1.735084786957941e-08
0, 5, 4, 4.204732118040511e-09
0, 5, 5, 1.2514967728805e-08
0, 5, 6, 1.381864223048979e-08
0, 5, 7, 1.96057960977214e-08
0, 5, 8, 8.425293351876917e-09
0, 5, 9, 1.00071462227902e-08
0, 5, 10, 9.860059435595758e-09
0, 5, 11, 3.565340689348773e-09
0, 5, 12, 1.78507715276055e-08
0, 5, 13, 1.792760251362324e-08
0, 5, 14, 1.389112291860783e-08
0, 5, 15, 1.102229507665697e-08
0, 5, 16, 1.048953546245457e-08
0, 5, 17, 1.505082991570816e-08
0, 5, 18, 1.33299495885808e-08
0, 5, 19, 2.234567908487861e-08
0, 5, 20, 3.193190600825346e-09
0, 5, 21, 2.047888614242765e-08
0, 5, 22, 1.103167157623375e-08
0, 5, 23, 1.763189949599564e-08
0, 5, 24, 9.307533410662927e-09
0, 5, 25, 1.60554449735173e-08
0, 5, 26, 7.062389784096013e-09
0, 5, 27, 1.272748395564349e-08
0, 5, 28, 5.144864978490205e-09
0, 5, 29, 1.543221195277056e-08
0, 5, 30, 4.27928315005488e-09
0, 5, 31, 2.148370370491648e-08
0, 5, 32, 2.333036652757414e-09
0, 5, 33, 1.842257191242425e-08
0, 5, 34, 8.12039413489174e-09
0, 5, 35, 7.362495058060858e-09
0, 5, 36, 1.570642282899826e-08
0, 5, 37, 7.803897084102118e-09
0, 5, 38, 1.305660202177705e-08
0, 5, 39, 9.129630385018572e-09
0, 5, 40, 1.199081189895423e-08
0, 5, 41, 3.558064509689984e-09
0, 5, 42, 9.311214022034164e-09
0, 5, 43, 1.117247094839513e-08
0, 5, 44, 2.134567544942456e-08
0, 5, 45, 1.681066619241278e-09
0, 5, 46, 8.891627878426789e-09
0, 5, 47, 7.096348841884037e-09
0, 5, 48, 1.473503097315643e-08
0, 5, 49, 3.386283253803413e-08
0, 6, 0, 1.619505241023944e-08
0, 6, 1, 1.295731255623878e-08
0, 6, 2, 1.048956299598558e-08
0, 6, 3, 1.120739767657142e-08
0, 6, 4, 2.743406612992771e-10
0, 6, 5, 4.041469381377283e-09
0, 6, 6, 4.329494096566577e-09
0, 6, 7, 1.289334683463039e-08
0, 6, 8, 1.220538514701275e-08
0, 6, 9, 1.309097275026261e-08
0, 6, 10, 2.671188603642349e-08
0, 6, 11, 2.545521127217398e-08
0, 6, 12, 1.144062533597889e-08
0, 6, 13, 6.429889509718123e-09
0, 6, 14, 1.046582287500541e-08
0, 6, 15, 1.957564776944309e-08
0, 6, 16, 4.663273323046724e-09
0, 6, 17, 1.924356851645825e-08
0, 6, 18, 1.17439116209539e-08
0, 6, 19, 1.019231543608612e-08
0, 6, 20, 4.205262804646281e-09
0, 6, 21, 7.345790198343138e-09
0, 6, 22, 1.889411826994092e-08
0, 6, 23, 1.991201337148141e-08
0, 6, 24, 3.69651331766363e-08
0, 6, 25, 2.257507247804824e-08
0, 6, 26, 2.648505770252996e-08
0, 6, 27, 2.439767277095939e-09
0, 6, 28, 2.472622995242091e-09
0, 6, 29, 5.925816726204403e-09
0, 6, 30, 1.324882603626065e-08
0, 6, 31, 6.661761364767926e-09
0, 6, 32, 2.317655578565336e-08
0, 6, 33, 1.283533812568294e-08
0, 6, 34, 4.477853643436447e-09
0, 6, 35, 9.176515547437702e-09
0, 6, 36, 8.061248335522464e-10
0, 6, 37, 1.784790271130987e-08
0, 6, 38, 3.11369028338504e-08
0, 6, 39, 9.652415755567745e-09
0, 6, 40, 1.56582427024432e-08
0, 6, 41, 1.355220646814814e-08
0, 6, 42, 2.62438284437394e-08
0, 6, 43, 1.017770046018995e-08
0, 6, 44, 1.756734846480867e-08
0, 6, 45, 4.654430618700189e-09
0, 6, 46, 9.529565581090083e-09
0, 6, 47, 2.093357487353842e-08
0, 6, 48, 2.102400253889414e-09
0, 6, 49, 1.466480936684889e-09
0, 7, 0, 1.778677827246611e-08
0, 7, 1, 8.876237522770225e-09
0, 7, 2, 2.041422497711665e-08
0, 7, 3, 1.399939542068296e-08
0, 7, 4, 2.973276957973781e-09
0, 7, 5, 1.099492674683233e-08
0, 7, 6, 6.834911303599256e-09
0, 7, 7, 4.535988029630289e-09
0, 7, 8, 1.640284885695564e-08
0, 7, 9, 1.967716478645798e-08
0, 7, 10, 1.192312826248099e-08
0, 7, 11, 2.542481780665184e-08
0, 7, 12, 1.955341311088432e-08
0, 7, 13, 2.846141811119196e-08
0, 7, 14, 1.785287828681703e-08
0, 7, 15, 8.217496905160715e-09
0, 7, 16, 1.664196425110731e-08
0, 7, 17, 7.113512889844742e-09
0, 7, 18, 1.278014760686119e-08
0, 7, 19, 1.322799558778343e-08
0, 7, 20, 1.439115937529323e-08
0, 7, 21, 9.261695410600623e-09
0, 7, 22, 1.460590848267884e-08
0, 7, 23, 3.524155900436199e-08
0, 7, 24, 2.383785080439793e-08
0, 7, 25, 1.402044791376511e-08
0, 7, 26, 5.490683907538596e-09
0, 7, 27, 2.167565504862523e-08
0, 7, 28, 2.029063139730169e-08
0, 7, 29, 6.998234880484233e-09
0, 7, 30, 8.222429848103729e-09
0, 7, 31, 1.987064557340545e-08
0, 7, 32, 2.517639963173224e-08
0, 7, 33, 3.798057424120316e-09
0, 7, 34, 1.43186662526773e-08
0, 7, 35, 6.071015246078559e-09
0, 7, 36, 5.185651907879674e-09
0, 7, 37, 2.208063420994222e-08
0, 7, 38, 4.090145111490529e-09
0, 7, 39, 2.697816858798774e-09
0, 7, 40, 2.587288605582216e-08
0, 7, 41, 7.566013593418575e-09
0, 7, 42, 5.040972528291832e-09
0, 7, 43, 1.135598193258147e-08
0, 7, 44, 1.328480525586428e-08
0, 7, 45, 7.402932045152966e-09
0, 7, 46, 4.436482292646815e-09
0, 7, 47, 6.947847630556225e-09
0, 7, 48, 2.779736085756213e-08
0, 7, 49, 1.757643097732853e-08
0, 8, 0, 9.044628157539591e-09
0, 8, 1, 1.098228619156316e-08
0, 8, 2, 1.431889007363907e-08
0, 8, 3, 6.371646266156716e-11
0, 8, 4, 9.033422898596655e-09
0, 8, 5, 7.846507443787232e-09
0, 8, 6, 1.55949386737575e-08
0, 8, 7, 1.0402117389674e-08
0, 8, 8, 9.535731315679641e-09
0, 8, 9, 1.314024444809547e-08
0, 8, 10, 7.550484681928538e-09
0, 8, 11, 1.499784518799174e-09
0, 8, 12, 1.218153489190854e-08
0, 8, 13, 1.244187064486368e-08
0, 8, 14, 1.835883445266973e-08
0, 8, 15, 2.582336122713969e-08
0, 8, 16, 1.878020228218702e-08
0, 8, 17, 1.514233538557619e-08
0, 8, 18, 3.896433042882563e-08
0, 8, 19, 4.22285353351981e-08
0, 8, 20, 1.203017507833692e-08
0, 8, 21, 3.658180247612108e-08
0, 8, 22, 1.4418128024829e-08
0, 8, 23, 1.616359313061366e-08
0, 8, 24, 7.219554731818789e-09
0, 8, 25, 2.616489958029433e-08
0, 8, 26, 8.960886255238165e-09
0, 8, 27, 4.62081892749211e-08
0, 8, 28, 7.713884642157609e-09
0, 8, 29, 2.573124824323259e-08
0, 8, 30, 1.977654839890874e-08
0, 8, 31, 9.439822257206743e-09
0, 8, 32, 1.376245872819482e-08
0, 8, 33, 3.620575617091504e-09
0, 8, 34, 1.303451035994385e-08
0, 8, 35, 1.283772199656141e-08
0, 8, 36, 7.534895374305961e-09
0, 8, 37, 1.73266592184973e-08
0, 8, 38, 1.554389861269101e-08
0, 8, 39, 7.057729511927846e-09
0, 8, 40, 6.608179781153467e-09
0, 8, 41, 5.96041838107908e-09
0, 8, 42, 3.024248185212741e-09
0, 8, 43, 2.717438007948658e-08
0, 8, 44, 9.621309082774587e-09
0, 8, 45, 4.552775934030251e-09
0, 8, 46, 2.23628831008682e-08
0, 8, 47, 1.132224758393363e-09
0, 8, 48, 1.438084318294841e-08
0, 8, 49, 2.600991955148402e-08
0, 9, 0, 2.343698390916416e-08
0, 9, 1, 2.676961052827664e-08
0, 9, 2, 1.764770374279578e-08
0, 9, 3, 1.573911667662742e-08
0, 9, 4, 2.833424694870246e-08
0, 9, 5, 6.573389832453813e-09
0, 9, 6, 1.811032745990815e-08
0, 9, 7, 2.219708150619226e-08
0, 9, 8, 5.894867260991532e-09
0, 9, 9, 7.180922523275513e-09
0, 9, 10, 1.062386978389895e-08
0, 9, 11, 2.696363843313065e-08
0, 9, 12, 3.218261923620958e-08
0, 9, 13, 1.16474572209313e-08
0, 9, 14, 1.312698305611093e-08
0, 9, 15, 8.797393036275025e-09
0, 9, 16, 6.003875174798168e-09
0, 9, 17, 6.144422748377565e-09
0, 9, 18, 6.184118994667642e-09
0, 9, 19, 1.727024034892111e-08
0, 9, 20, 7.243107891241607e-09
0, 9, 21, 9.250696209051057e-09
0, 9, 22, 1.93431812789413e-08
0, 9, 23, 3.572607487623003e-10
0, 9, 24, 1.370655855481573e-08
0, 9, 25, 3.585460106592109e-08
0, 9, 26, 1.304654784206605e-08
0, 9, 27, 2.099774931707543e-08
0, 9, 28, 3.200883336162974e-09
0, 9, 29, 3.569552209370386e-09
0, 9, 30, 2.052918723904895e-08
0, 9, 31, 8.34895796941737e-09
0, 9, 32, 6.356624560055479e-09
0, 9, 33, 8.488333591571973e-09
0, 9, 34, 1.095679902363145e-08
0, 9, 35, 9.172278936375733e-09
0, 9, 36, 1.654432679742968e-08
0, 9, 37, 1.149351103180152e-08
0, 9, 38, 5.780090628348944e-09
0, 9, 39, 1.631698687276639e-08
0, 9, 40, 5.627244004102749e-09
0, 9, 41, 1.045632913587724e-08
0, 9, 42, 2.497224826925049e-08
0, 9, 43, 2.345026040018183e-08
0, 9, 44, 7.400107193689109e-09
0, 9, 45, 6.208187297573886e-09
0, 9, 46, 5.554635418292264e-09
0, 9, 47, 1.185265574576988e-08
0, 9, 48, 2.899021911417776e-09
0, 9, 49, 6.318666923021965e-09
0, 10, 0, 2.853469815988774e-08
0, 10, 1, 7.174240757024108e-09
0, 10, 2, 2.195904436064211e-08
0, 10, 3, 2.083165462352099e-08
0, 10, 4, 1.0144456830119e-08
0, 10, 5, 9.572123538248434e-09
0, 10, 6, 2.58195882452128e-08
0, 10, 7, 2.843557211917869e-08
0, 10, 8, 1.072763655685094e-08
0, 10, 9, 1.050652009837449e-08
0, 10, 10, 1.208529276652826e-08
0, 10, 11, 1.565326890329288e-08
0, 10, 12, 2.781025898457301e-08
0, 10, 13, 7.454802997131083e-09
0, 10, 14, 6.332435020794946e-09
0, 10, 15, 5.129805025205769e-09
0, 10, 16, 2.979377455858412e-08
0, 10, 17, 1.902411739251875e-08
0, 10, 18, 7.765390108716019e-09
0, 10, 19, 5.502691635683732e-09
0, 10, 20, 6.117835571473051e-09
0, 10, 21, 1.2959135098356e-08
0, 10, 22, 2.038422941552653e-08
0, 10, 23, 2.070173721335777e-08
0, 10, 24, 2.634587659144927e-08
0, 10, 25, 7.547760638715317e-09
0, 10, 26, 1.203148514150598e-08
0, 10, 27, 2.243447561056655e-08
0, 10, 28, 1.644131053524234e-08
0, 10, 29, 1.138919802912142e-08
0, 10, 30, 1.841330998786361e-08
0, 10, 31, 1.238267177683383e-08
0, 10, 32, 1.502972324374241e-08
0, 10, 33, 9.850848137205048e-09
0, 10, 34, 1.231810387025689e-08
0, 10, 35, 2.03956478372902e-08
0, 10, 36, 1.158057560957104e-08
0, 10, 37, 2.989726510804758e-08
0, 10, 38, 4.360337424458294e-09
0, 10, 39, 1.546800376672763e-08
0, 10, 40, 2.188695802374241e-08
0, 10, 41, 2.70809019653484e-09
0, 10, 42, 1.203016086748221e-08
0, 10, 43, 1.453364095738152e-08
0, 10, 44, 2.033884349827986e-08
0, 10, 45, 3.427564010394235e-08
0, 10, 46, 1.524553638887483e-08
0, 10, 47, 6.841472277585581e-09
0, 10, 48, 2.191806558471399e-08
0, 10, 49, 9.081512430952898e-09
0, 11, 0, 1.431344287539105e-08
0, 11, 1, 4.669734043893925e-10
0, 11, 2, 1.414136452382309e-08
0, 11, 3, 1.758513157312791e-08
0, 11, 4, 1.341255106979133e-08
0, 11, 5, 2.048087388573094e-08
0, 11, 6, 3.888505517579688e-09
0, 11, 7, 4.352889604319898e-09
0, 11, 8, 2.058585124586898e-08
0, 11, 9, 9.99769067533407e-09
0, 11, 10, 2.977297519635158e-08
0, 11, 11, 7.541039792613446e-09
0, 11, 12, 1.81846839808486e-08
0, 11, 13, 1.037515229285191e-08
0, 11, 14, 3.394092118469416e-09
0, 11, 15, 3.744266052763123e-08
0, 11, 16, 4.727903402113043e-09
0, 11, 17, 2.731729864535737e-08
0, 11, 18, 1.472251831557969e-08
0, 11, 19, 1.05562669716619e-08
0, 11, 20, 1.785350711713818e-08
0, 11, 21, 1.380751957213988e-08
0, 11, 22, 2.947929012009354e-08
0, 11, 23, 8.070140999905107e-09
0, 11, 24, 6.708444910685785e-09
0, 11, 25, 2.076978589116152e-08
0, 11, 26, 2.44432136753403e-08
0, 11, 27, 1.258527770886531e-08
0, 11, 28, 9.473414053218221e-09
0, 11, 29, 1.655527981370142e-08
0, 11, 30, 7.84885312299366e-09
0, 11, 31, 9.913416754159243e-09
0, 11, 32, 1.171370200836463e-08
0, 11, 33, 8.203104862047894e-09
0, 11, 34, 1.830779083888956e-08
0, 11, 35, 2.166063772790494e-08
0, 11, 36, 2.257002584826751e-08
0, 11, 37, 5.640580891252966e-09
0, 11, 38, 9.571518688744618e-09
0, 11, 39, 1.590683851304675e-08
0, 11, 40, 1.826536433213732e-08
0, 11, 41, 1.410128813716938e-08
0, 11, 42, 1.898913737363728e-08
0, 11, 43, 1.888043499320702e-08
0, 11, 44, 2.427916534486485e-08
0, 11, 45, 5.79192116489935e-09
0, 11, 46, 1.640957592030645e-08
0, 11, 47, 2.325073289455304e-08
0, 11, 48, 1.407445804346708e-08
0, 11, 49, 8.079404700822579e-09
0, 12, 0, 1.659742387971619e-08
0, 12, 1, 3.531680548007898e-08
0, 12, 2, 2.005059407395038e-08
0, 12, 3, 2.691924017028668e-08
0, 12, 4, 1.367008106711864e-08
0, 12, 5, 1.434748408968289e-08
0, 12, 6, 1.06446380598868e-08
0, 12, 7, 2.801960263809633e-08
0, 12, 8, 1.288074980010379e-08
0, 12, 9, 1.645592817567376e-08
0, 12, 10, 9.637194153810924e-09
0, 12, 11, 1.799204873975668e-08
0, 12, 12, 3.363806300171746e-08
0, 12, 13, 1.435640850644404e-08
0, 12, 14, 8.502030190982168e-09
0, 12, 15, 1.061301357907496e-08
0, 12, 16, 2.122125231096561e-08
0, 12, 17, 2.395732145998863e-08
0, 12, 18, 2.76775509178151e-08
0, 12, 19, 1.755574174922003e-08
0, 12, 20, 3.248469582217695e-08
0, 12, 21, 1.038097430239304e-08
0, 12, 22, 2.028848911095338e-08
0, 12, 23, 2.087256234517554e-08
0, 12, 24, 1.550781547621227e-08
0, 12, 25, 1.293733298268762e-08
0, 12, 26, 2.47404177144972e-08
0, 12, 27, 1.823710960024982e-08
0, 12, 28, 2.025181089493344e-08
0, 12, 29, 8.805460360861161e-09
0, 12, 30, 1.064463450717312e-08
0, 12, 31, 2.430201107017638e-08
0, 12, 32, 1.526501947068937e-08
0, 12, 33, 3.05295415614637e-08
0, 12, 34, 5.897875521299056e-09
0, 12, 35, 5.306015893324911e-08
0, 12, 36, 1.989968545501597e-08
0, 12, 37, 3.67649244381596e-09
0, 12, 38, 1.237261404440915e-08
0, 12, 39, 7.046130345855772e-09
0, 12, 40, 2.211994321044131e-08
0, 12, 41, 1.136377036914382e-08
0, 12, 42, 7.099671073262925e-09
0, 12, 43, 1.989013398429051e-08
0, 12, 44, 9.091059460786255e-09
0, 12, 45, 2.927464848312411e-08
0, 12, 46, 6.157682808094478e-09
0, 12, 47, 6.961181853171183e-09
0, 12, 48, 5.350094256506566e-10
0, 12, 49, 9.43266265096554e-09
0, 13, 0, 6.294126109196441e-09
0, 13, 1, 3.065899889520551e-08
0, 13, 2, 1.682390049495552e-08
0, 13, 3, 9.480934259897822e-09
0, 13, 4, 2.417647060326544e-08
0, 13, 5, 8.6141307420462e-09
0, 13, 6, 5.82372861046565e-09
0, 13, 7, 9.786912613662935e-09
0, 13, 8, 2.131644727398907e-08
0, 13, 9, 1.087622791828835e-08
0, 13, 10, 1.353904277578977e-08
0, 13, 11, 2.84605903289048e-08
0, 13, 12, 1.276841565811537e-08
0, 13, 13, 2.247548280820411e-08
0, 13, 14, 2.98618338945289e-08
0, 13, 15, 1.110378189395078e-08
0, 13, 16, 3.288073591178886e-09
0, 13, 17, 1.122293102895355e-08
0, 13, 18, 2.945394683706581e-08
0, 13, 19, 1.785132930365307e-08
0, 13, 20, 3.042879370696028e-08
0, 13, 21, 5.457341245573843e-08
0, 13, 22, 5.060295293901618e-09
0, 13, 23, 1.131449423041886e-08
0, 13, 24, 1.079247269331063e-08
0, 13, 25, 1.326944687463083e-08
0, 13, 26, 3.887066668539774e-08
0, 13, 27, 2.477625926644578e-08
0, 13, 28, 3.342286447605147e-08
0, 13, 29, 1.918839842574016e-08
0, 13, 30, 2.224666495465044e-08
0, 13, 31, 1.304366747945096e-08
0, 13, 32, 2.210190785945088e-08
0, 13, 33, 1.491747347870387e-08
0, 13, 34, 2.685871258734096e-08
0, 13, 35, 1.626583134850534e-08
0, 13, 36, 2.128700771208969e-09
0, 13, 37, 2.424305201031984e-09
0, 13, 38, 6.721065481940514e-09
0, 13, 39, 1.40002223147917e-08
0, 13, 40, 2.717140112906691e-08
0, 13, 41, 2.043773861259979e-08
0, 13, 42, 3.054442032635052e-08
0, 13, 43, 1.813288541541169e-08
0, 13, 44, 1.160169382785625e-08
0, 13, 45, 1.341108468722041e-08
0, 13, 46, 2.442563262761155e-09
0, 13, 47, 2.45738829285358e-09
0, 13, 48, 8.077054580724052e-09
0, 13, 49, 3.187216268685233e-09
0, 14, 0, 1.704814067693405e-08
0, 14, 1, 1.321781617491524e-08
0, 14, 2, 1.663616622238351e-08
0, 14, 3, 7.977406291104217e-09
0, 14, 4, 1.582124209420499e-09
0, 14, 5, 1.115883652147431e-08
0, 14, 6, 4.889976867872292e-09
0, 14, 7, 1.908849256437861e-08
0, 14, 8, 1.30061090786171e-08
0, 14, 9, 2.160552270424887e-08
0, 14, 10, 1.401607985229703e-08
0, 14, 11, 1.64507767408395e-08
0, 14, 12, 3.331049924781837e-08
0, 14, 13, 1.301021779198663e-08
0, 14, 14, 6.525593398976071e-09
0, 14, 15, 1.106294167385613e-08
0, 14, 16, 1.113156233856216e-08
0, 14, 17, 2.034600221634264e-08
0, 14, 18, 2.697441736643214e-08
0, 14, 19, 2.54703831359393e-08
0, 14, 20, 2.091161377393291e-08
0, 14, 21, 1.25682939611238e-08
0, 14, 22, 2.034103729897652e-08
0, 14, 23, 2.373794316667954e-08
0, 14, 24, 2.039278612642192e-08
0, 14, 25, 1.858596121451228e-08
0, 14, 26, 5.860444574068424e-09
0, 14, 27, 4.542553710962238e-08
0, 14, 28, 1.042335728840271e-08
0, 14, 29, 1.256546955374915e-08
0, 14, 30, 1.707444852172557e-08
0, 14, 31, 9.124151212347442e-09
0, 14, 32, 2.075140237423057e-08
0, 14, 33, 2.205700511126452e-08
0, 14, 34, 6.079988956742e-09
0, 14, 35, 1.669629057232669e-08
0, 14, 36, 1.745220501447875e-08
0, 14, 37, 1.564189844316388e-08
0, 14, 38, 9.604866235690679e-09
0, 14, 39, 2.019313782852805e-08
0, 14, 40, 2.265981713378551e-08
0, 14, 41, 1.482786604611874e-08
0, 14, 42, 4.128251163137975e-08
0, 14, 43, 1.499630997159329e-08
0, 14, 44, 5.432665428628525e-09
0, 14, 45, 2.692692646633077e-08
0, 14, 46, 1.61599427173087e-08
0, 14, 47, 1.131850346780539e-08
0, 14, 48, 9.010575396928289e-09
0, 14, 49, 4.121075924956585e-09
0, 15, 0, 1.933030446821249e-08
0, 15, 1, 1.476479116746532e-08
0, 15, 2, 1.030329244144923e-08
0, 15, 3, 1.258705406570471e-08
0, 15, 4, 5.143063752655053e-09
0, 15, 5, 2.051987735285365e-08
0, 15, 6, 1.856664155752696e-08
0, 15, 7, 2.222172845733894e-08
0, 15, 8, 1.769562096853861e-08
0, 15, 9, 1.133816152076861e-08
0, 15, 10, 1.364981372375951e-08
0, 15, 11, 1.826945350558162e-08
0, 15, 12, 1.389136272678115e-08
0, 15, 13, 3.346816512816986e-08
0, 15, 14, 3.641127221953866e-08
0, 15, 15, 1.473930755224728e-08
0, 15, 16, 4.766383288057341e-09
0, 15, 17, 2.303053037167047e-08
0, 15, 18, 1.662548498870819e-08
0, 15, 19, 1.872611399278412e-08
0, 15, 20, 2.655707120879924e-08
0, 15, 21, 2.925363418171401e-08
0, 15, 22, 1.930451709597492e-08
0, 15, 23, 1.304768737497852e-08
0, 15, 24, 2.514611097126362e-08
0, 15, 25, 1.710870023430289e-08
0, 15, 26, 2.552002875688686e-08
0, 15, 27, 1.61536988230182e-08
0, 15, 28, 1.985725006647954e-08
0, 15, 29, 2.576192237313535e-08
0, 15, 30, 1.531525306575077e-08
0, 15, 31, 7.33778859896006e-09
0, 15, 32, 6.520615158933651e-09
0, 15, 33, 8.512917482050852e-09
0, 15, 34, 1.582833775159997e-08
0, 15, 35, 1.071623678683409e-08
0, 15, 36, 1.537103777593529e-08
0, 15, 37, 3.349925847828672e-08
0, 15, 38, 8.349799962559246e-09
0, 15, 39, 1.894169443517058e-08
0, 15, 40, 1.863691601045048e-08
0, 15, 41, 1.653203796081471e-08
0, 15, 42, 1.637094371176318e-08
0, 15, 43, 4.727548574834373e-09
0, 15, 44, 1.227937218573061e-08
0, 15, 45, 1.713912922696181e-08
0, 15, 46, 8.418052033221102e-09
0, 15, 47, 1.189670495449491e-08
0, 15, 48, 2.718343106167254e-09
0, 15, 49, 1.897260659688982e-08
0, 16, 0, 2.667232124053953e-08
0, 16, 1, 6.580344269480065e-09
0, 16, 2, 6.397255614132291e-09
0, 16, 3, 5.240579525889189e-09
0, 16, 4, 1.855055486998936e-08
0, 16, 5, 2.772880058898863e-08
0, 16, 6, 3.541930482242606e-08
0, 16, 7, 3.715456742270362e-08
0, 16, 8, 1.233229607322528e-08
0, 16, 9, 8.892605762866879e-09
0, 16, 10, 9.059651695508819e-09
0, 16, 11, 2.653997022150634e-08
0, 16, 12, 1.48297578661527e-08
0, 16, 13, 2.369591101114565e-08
0, 16, 14, 3.266797055090365e-09
0, 16, 15, 1.061332532970027e-08
0, 16, 16, 2.291100464901774e-08
0, 16, 17, 1.571277152834227e-08
0, 16, 18, 1.313322961493668e-08
0, 16, 19, 2.446237346021007e-08
0, 16, 20, 1.484400868889679e-08
0, 16, 21, 1.612732880573731e-08
0, 16, 22, 1.770303370562942e-08
0, 16, 23, 6.980374500642483e-09
0, 16, 24, 2.479402461119662e-08
0, 16, 25, 2.931923859250674e-08
0, 16, 26, 3.869714859661144e-08
0, 16, 27, 1.393408499694715e-08
0, 16, 28, 3.287362915216363e-08
0, 16, 29, 3.919713975619743e-08
0, 16, 30, 2.710294921826062e-08
0, 16, 31, 3.881247323533898e-08
0, 16, 32, 1.315227926568241e-08
0, 16, 33, 1.602439425596458e-08
0, 16, 34, 1.374617131233435e-08
0, 16, 35, 1.178560271597462e-08
0, 16, 36, 2.777032648282329e-08
0, 16, 37, 6.084059478439485e-09
0, 16, 38, 1.172567465346219e-08
0, 16, 39, 2.778435614914088e-08
0, 16, 40, 8.479971391750496e-09
0, 16, 41, 1.281590211732464e-08
0, 16, 42, 1.167867313967008e-08
0, 16, 43, 1.624457368620824e-08
0, 16, 44, 3.356137412424687e-08
0, 16, 45, 5.949434722651858e-09
0, 16, 46, 6.227796500724025e-09
0, 16, 47, 1.937026183895796e-08
0, 16, 48, 1.342723887631792e-08
0, 16, 49, 6.010041797566146e-09
0, 17, 0, 1.486100664749301e-08
0, 17, 1, 1.895081958025457e-08
0, 17, 2, 5.16925435789517e-09
0, 17, 3, 2.791148978609215e-10
0, 17, 4, 9.829946634454245e-09
0, 17, 5, 2.364215490047172e-08
0, 17, 6, 5.360840660273425e-09
0, 17, 7, 1.184546505328399e-08
0, 17, 8, 2.815165522918051e-08
0, 17, 9, 1.304575292238042e-08
0, 17, 10, 2.164953727401553e-08
0, 17, 11, 9.224140562480443e-09
0, 17, 12, 2.163008971933778e-08
0, 17, 13, 1.599348387060218e-08
0, 17, 14, 2.305005430969231e-08
0, 17, 15, 1.176665165303348e-08
0, 17, 16, 1.260444726369769e-08
0, 17, 17, 1.617629230565854e-08
0, 17, 18, 2.038089697009582e-08
0, 17, 19, 2.061360682148461e-08
0, 17, 20, 2.83179417692736e-08
0, 17, 21, 1.457666254367496e-08
0, 17, 22, 2.709017721258533e-08
0, 17, 23, 1.444578945353214e-08
0, 17, 24, 1.232760737934768e-08
0, 17, 25, 1.837562990658625e-08
0, 17, 26, 8.503164394824125e-09
0, 17, 27, 2.566725676445003e-08
0, 17, 28, 1.687331874222764e-08
0, 17, 29, 2.606432047969065e-08
0, 17, 30, 4.008238363439887e-08
0, 17, 31, 1.771163837815948e-08
0, 17, 32, 1.700485441347155e-08
0, 17, 33, 1.032836838277262e-08
0, 17, 34, 3.174435647679275e-08
0, 17, 35, 1.665686610863304e-08
0, 17, 36, 1.093343016123072e-08
0, 17, 37, 4.620542526367899e-08
0, 17, 38, 1.505995150807848e-08
0, 17, 39, 1.591072162909768e-08
0, 17, 40, 1.01496686610858e-08
0, 17, 41, 4.114296459079014e-09
0, 17, 42, 2.9425208936118e-08
0, 17, 43, 1.792930959254591e-08
0, 17, 44, 2.027515577651684e-08
0, 17, 45, 2.681356470191076e-08
0, 17, 46, 8.198482781551775e-09
0, 17, 47, 2.210518879053325e-08
0, 17, 48, 1.37934987876065e-08
0, 17, 49, 2.419953126775454e-08
0, 18, 0, 7.234733701011464e-09
0, 18, 1, 7.01586788665054e-09
0, 18, 2, 1.574153962735636e-08
0, 18, 3, 1.19852199276238e-08
0, 18, 4, 7.497632736885862e-08
0, 18, 5, 1.004735405985002e-08
0, 18, 6, 2.352071604150296e-08
0, 18, 7, 8.241284987775543e-09
0, 18, 8, 2.837815493705875e-08
0, 18, 9, 1.422024720199033e-08
0, 18, 10, 2.332813409111623e-08
0, 18, 11, 4.6367758521626e-09
0, 18, 12, 1.991365294884417e-08
0, 18, 13, 2.129937826111927e-08
0, 18, 14, 2.517522013079088e-08
0, 18, 15, 1.938936655676571e-08
0, 18, 16, 1.895929635509219e-08
0, 18, 17, 3.821987615282296e-09
0, 18, 18, 1.17978560254528e-08
0, 18, 19, 1.917119263339373e-08
0, 18, 20, 1.833190133027074e-08
0, 18, 21, 8.996543066075446e-09
0, 18, 22, 1.420100836924121e-08
0, 18, 23, 1.262453874772973e-08
0, 18, 24, 3.757918776159386e-08
0, 18, 25, 1.407585958901336e-08
