# TOPAS Version: 3.7
# Parameter File: TestingDose8.txt
# Results for scorer TestingDose8
# Scored in component: Phantom
# X in 50 bins of 0.1 cm
# Y in 50 bins of 0.1 cm
# Z in 50 bins of 0.1 cm
# DoseToMedium ( Gy ) : Sum   
0, 0, 0, 8.764705405894802e-09
0, 0, 1, 3.678085169767087e-09
0, 0, 2, 4.255401808705983e-09
0, 0, 3, 1.486817335916157e-08
0, 0, 4, 2.192705927939187e-08
0, 0, 5, 2.904786411406235e-09
0, 0, 6, 4.244890661198042e-09
0, 0, 7, 9.398673839200455e-09
0, 0, 8, 8.94499585513131e-09
0, 0, 9, 5.588987495031006e-09
0, 0, 10, 2.773812957101995e-09
0, 0, 11, 2.313899960526555e-09
0, 0, 12, 2.689419131840509e-09
0, 0, 13, 1.800263493834109e-09
0, 0, 14, 9.291354491347548e-11
0, 0, 15, 1.56758392932943e-08
0, 0, 16, 2.133012655392008e-09
0, 0, 17, 4.787302110287328e-09
0, 0, 18, 3.70764841051141e-09
0, 0, 19, 1.259380155715917e-09
0, 0, 20, 2.089072914657208e-09
0, 0, 21, 6.101894545196274e-09
0, 0, 22, 7.944215063560023e-09
0, 0, 23, 1.530665261206821e-09
0, 0, 24, 6.752688186395517e-09
0, 0, 25, 4.722025437331467e-09
0, 0, 26, 6.319133549759215e-10
0, 0, 27, 6.759039106185583e-09
0, 0, 28, 2.885145011788381e-09
0, 0, 29, 7.485372321980321e-09
0, 0, 30, 1.255652026799225e-08
0, 0, 31, 0
0, 0, 32, 2.338029769788363e-09
0, 0, 33, 1.006493732802483e-08
0, 0, 34, 3.605381992954904e-09
0, 0, 35, 2.191387071803774e-09
0, 0, 36, 1.24091847908403e-09
0, 0, 37, 6.005272279452356e-09
0, 0, 38, 6.637362659489554e-09
0, 0, 39, 4.094386163444597e-09
0, 0, 40, 2.144170174744886e-09
0, 0, 41, 2.005887900224934e-09
0, 0, 42, 2.31730767907834e-09
0, 0, 43, 5.473805408939825e-09
0, 0, 44, 8.486879643498924e-09
0, 0, 45, 3.461344322275295e-09
0, 0, 46, 5.137517966602445e-09
0, 0, 47, 3.475730592228388e-09
0, 0, 48, 2.433781176591765e-08
0, 0, 49, 4.284891996775286e-09
0, 1, 0, 4.523597496586262e-09
0, 1, 1, 2.31967778319131e-09
0, 1, 2, 1.521845405250133e-08
0, 1, 3, 1.580298003567293e-09
0, 1, 4, 1.358332735179602e-08
0, 1, 5, 7.06369940317586e-09
0, 1, 6, 4.647839890736805e-09
0, 1, 7, 4.079340865104086e-09
0, 1, 8, 1.801411242396966e-09
0, 1, 9, 1.566142437958717e-09
0, 1, 10, 5.622464716026343e-10
0, 1, 11, 3.607832921304066e-09
0, 1, 12, 2.090377870800353e-09
0, 1, 13, 8.813921148487225e-09
0, 1, 14, 3.261657832709375e-09
0, 1, 15, 5.646096479239304e-09
0, 1, 16, 8.706646958955844e-09
0, 1, 17, 0
0, 1, 18, 5.407961189973776e-09
0, 1, 19, 0
0, 1, 20, 0
0, 1, 21, 7.213199815225835e-09
0, 1, 22, 1.567397234225609e-08
0, 1, 23, 5.563271621156218e-09
0, 1, 24, 1.796232318440616e-08
0, 1, 25, 3.505467249809158e-09
0, 1, 26, 8.382489369296309e-09
0, 1, 27, 5.401613378808179e-09
0, 1, 28, 5.324996443789587e-09
0, 1, 29, 5.237448696959746e-09
0, 1, 30, 2.266219567559347e-08
0, 1, 31, 6.435192378972943e-10
0, 1, 32, 5.057570362509978e-09
0, 1, 33, 4.536366393637081e-09
0, 1, 34, 2.047077646283313e-10
0, 1, 35, 9.803539313679721e-09
0, 1, 36, 6.28319929418808e-09
0, 1, 37, 6.159360133040082e-09
0, 1, 38, 5.084993315307429e-09
0, 1, 39, 1.234746416223231e-09
0, 1, 40, 6.745232372651344e-09
0, 1, 41, 5.073775621866616e-09
0, 1, 42, 2.486522543421188e-09
0, 1, 43, 1.883006639502582e-09
0, 1, 44, 0
0, 1, 45, 2.50363596521197e-09
0, 1, 46, 1.950700045938447e-08
0, 1, 47, 8.482264668430162e-09
0, 1, 48, 4.066173175942822e-09
0, 1, 49, 3.003662873979351e-09
0, 2, 0, 2.8635140925104e-09
0, 2, 1, 0
0, 2, 2, 0
0, 2, 3, 6.677964847767726e-10
0, 2, 4, 3.833543704701015e-09
0, 2, 5, 1.763781232178019e-09
0, 2, 6, 7.804359825058782e-09
0, 2, 7, 1.773440061469955e-08
0, 2, 8, 0
0, 2, 9, 0
0, 2, 10, 1.11354774290362e-08
0, 2, 11, 1.607146637994106e-09
0, 2, 12, 8.413622687442057e-09
0, 2, 13, 1.323154297239171e-08
0, 2, 14, 7.726170814237321e-09
0, 2, 15, 3.373207269063982e-09
0, 2, 16, 8.889532665534716e-09
0, 2, 17, 9.428442027115125e-09
0, 2, 18, 1.396019855270936e-09
0, 2, 19, 7.359667986150953e-09
0, 2, 20, 3.828712902276266e-09
0, 2, 21, 5.88151660707581e-09
0, 2, 22, 1.421531559131495e-09
0, 2, 23, 2.952974531567065e-09
0, 2, 24, 1.207865896191151e-08
0, 2, 25, 3.153692196278257e-09
0, 2, 26, 4.648993634503995e-09
0, 2, 27, 7.215035235930145e-09
0, 2, 28, 1.184170184131972e-08
0, 2, 29, 5.531643587630697e-09
0, 2, 30, 1.40291893657718e-08
0, 2, 31, 1.503326352292333e-08
0, 2, 32, 2.670246690428257e-09
0, 2, 33, 4.017651544785394e-09
0, 2, 34, 6.768655413935676e-09
0, 2, 35, 5.161492122596201e-09
0, 2, 36, 0
0, 2, 37, 1.988165188038238e-09
0, 2, 38, 0
0, 2, 39, 4.606937054063565e-09
0, 2, 40, 4.481904625208699e-09
0, 2, 41, 1.094919377386816e-09
0, 2, 42, 6.231687610380732e-09
0, 2, 43, 4.927635632867577e-09
0, 2, 44, 2.569561230458817e-09
0, 2, 45, 1.576044517115349e-09
0, 2, 46, 3.549062599361719e-09
0, 2, 47, 1.947637162658111e-09
0, 2, 48, 8.184096067509472e-09
0, 2, 49, 1.466163745966753e-09
0, 3, 0, 5.363914201694797e-09
0, 3, 1, 1.856950482270747e-09
0, 3, 2, 6.274771813252755e-09
0, 3, 3, 1.427094276085228e-10
0, 3, 4, 3.343538335087715e-09
0, 3, 5, 5.593903562584046e-09
0, 3, 6, 2.970787171818756e-09
0, 3, 7, 3.643250701124146e-10
0, 3, 8, 3.234016610065282e-09
0, 3, 9, 9.843756920702162e-09
0, 3, 10, 4.617342508339561e-09
0, 3, 11, 7.157016312930864e-09
0, 3, 12, 3.955384464404688e-09
0, 3, 13, 1.430760177001389e-09
0, 3, 14, 1.609204575148127e-10
0, 3, 15, 3.097998080292541e-09
0, 3, 16, 1.571788210696923e-08
0, 3, 17, 1.761594092819507e-09
0, 3, 18, 1.439720076490403e-08
0, 3, 19, 8.302225573686428e-09
0, 3, 20, 9.296132752467656e-09
0, 3, 21, 1.565429674776908e-09
0, 3, 22, 1.298466889565475e-09
0, 3, 23, 1.133124261087914e-08
0, 3, 24, 1.982508379683168e-09
0, 3, 25, 4.329140601555537e-09
0, 3, 26, 5.314557682822851e-09
0, 3, 27, 6.987066036856504e-09
0, 3, 28, 1.102056401691698e-08
0, 3, 29, 2.328552906050163e-09
0, 3, 30, 4.073597903442305e-09
0, 3, 31, 2.011109057065141e-10
0, 3, 32, 2.002289711811045e-08
0, 3, 33, 8.108630211722812e-09
0, 3, 34, 1.543073224752334e-08
0, 3, 35, 4.893362604008189e-09
0, 3, 36, 2.02727150622195e-08
0, 3, 37, 1.394424309353326e-08
0, 3, 38, 9.840123382787169e-09
0, 3, 39, 3.77497233472468e-09
0, 3, 40, 4.388806207344942e-09
0, 3, 41, 8.061839529283077e-10
0, 3, 42, 8.063373968525411e-09
0, 3, 43, 7.042666450018942e-09
0, 3, 44, 2.89731516556202e-10
0, 3, 45, 1.153088735605934e-08
0, 3, 46, 9.018203073196673e-09
0, 3, 47, 6.434990762471671e-09
0, 3, 48, 1.210050104560878e-08
0, 3, 49, 3.710773466281125e-09
0, 4, 0, 1.763073353977518e-09
0, 4, 1, 5.310736739261301e-09
0, 4, 2, 1.404220517642329e-09
0, 4, 3, 6.619241155192412e-09
0, 4, 4, 1.442696362374818e-08
0, 4, 5, 2.473443228012684e-09
0, 4, 6, 9.088828578640573e-10
0, 4, 7, 1.711535912995998e-09
0, 4, 8, 7.834293214159516e-09
0, 4, 9, 1.101561730720846e-09
0, 4, 10, 0
0, 4, 11, 0
0, 4, 12, 2.077534366762279e-09
0, 4, 13, 1.285536210815508e-08
0, 4, 14, 7.081881747694752e-09
0, 4, 15, 0
0, 4, 16, 3.472937937232246e-09
0, 4, 17, 5.025307725503581e-09
0, 4, 18, 3.304820195282332e-09
0, 4, 19, 1.053549780749563e-08
0, 4, 20, 3.431187112212797e-09
0, 4, 21, 5.434677596838355e-09
0, 4, 22, 0
0, 4, 23, 5.246938439285032e-09
0, 4, 24, 8.853756838789195e-09
0, 4, 25, 6.668595453618309e-09
0, 4, 26, 1.108645975023137e-08
0, 4, 27, 1.166270546804071e-08
0, 4, 28, 4.093144989614217e-10
0, 4, 29, 9.220785024410816e-09
0, 4, 30, 3.557431238476738e-09
0, 4, 31, 9.839335568528895e-09
0, 4, 32, 2.383304398279051e-08
0, 4, 33, 7.159174586490735e-09
0, 4, 34, 1.830520623968823e-09
0, 4, 35, 0
0, 4, 36, 3.270250070741554e-09
0, 4, 37, 3.077794685779622e-09
0, 4, 38, 0
0, 4, 39, 8.560304465277113e-09
0, 4, 40, 3.66511709870565e-09
0, 4, 41, 5.644666956072797e-09
0, 4, 42, 5.148983017733144e-09
0, 4, 43, 4.051250002135021e-09
0, 4, 44, 1.323862175439672e-08
0, 4, 45, 4.071354364754143e-09
0, 4, 46, 4.398387432047457e-09
0, 4, 47, 8.065534018442122e-09
0, 4, 48, 5.870655073181297e-10
0, 4, 49, 2.154322942260478e-09
0, 5, 0, 6.076679714972499e-10
0, 5, 1, 0
0, 5, 2, 3.76472497620739e-09
0, 5, 3, 7.582469763178779e-09
0, 5, 4, 6.710786593089324e-09
0, 5, 5, 1.883681299830187e-08
0, 5, 6, 3.806079007517837e-09
0, 5, 7, 6.552342668442179e-09
0, 5, 8, 8.698664899497999e-09
0, 5, 9, 2.935537146697698e-09
0, 5, 10, 6.259925022789048e-09
0, 5, 11, 3.184035479719682e-09
0, 5, 12, 4.507161310840502e-09
0, 5, 13, 2.27605454483637e-08
0, 5, 14, 2.891653316794418e-08
0, 5, 15, 8.717945476632849e-09
0, 5, 16, 2.98857605329772e-09
0, 5, 17, 4.327533442705089e-09
0, 5, 18, 5.740347308602622e-09
0, 5, 19, 3.038287177403731e-09
0, 5, 20, 1.596983545404385e-09
0, 5, 21, 1.929485238250095e-09
0, 5, 22, 1.166293994714351e-08
0, 5, 23, 8.870546963635206e-09
0, 5, 24, 5.998720187250228e-09
0, 5, 25, 5.847972772698995e-09
0, 5, 26, 7.487074071832467e-09
0, 5, 27, 1.908732283339987e-09
0, 5, 28, 3.801314374385356e-09
0, 5, 29, 9.642856291236512e-09
0, 5, 30, 5.371731504055788e-09
0, 5, 31, 2.749016125846993e-09
0, 5, 32, 2.282831168542998e-08
0, 5, 33, 1.9813601870311e-09
0, 5, 34, 2.178743407910133e-08
0, 5, 35, 5.648675305280904e-09
0, 5, 36, 1.949272965262594e-09
0, 5, 37, 2.834612100599543e-09
0, 5, 38, 1.717006981039049e-08
0, 5, 39, 4.010278331634254e-09
0, 5, 40, 7.148425851255524e-09
0, 5, 41, 3.369538870146016e-09
0, 5, 42, 5.334188202255064e-09
0, 5, 43, 2.982139868379363e-09
0, 5, 44, 7.148838854220685e-09
0, 5, 45, 1.662038506822228e-08
0, 5, 46, 0
0, 5, 47, 6.075568936836362e-09
0, 5, 48, 0
0, 5, 49, 4.107079121240531e-09
0, 6, 0, 2.731993076210415e-09
0, 6, 1, 0
0, 6, 2, 8.590426148202823e-09
0, 6, 3, 1.738330590583814e-09
0, 6, 4, 2.945146349020433e-09
0, 6, 5, 1.101592150831721e-09
0, 6, 6, 2.454393910333863e-10
0, 6, 7, 4.521021335079922e-09
0, 6, 8, 3.851730934201214e-09
0, 6, 9, 2.086876271789606e-08
0, 6, 10, 5.077247067220014e-09
0, 6, 11, 3.311263485628047e-09
0, 6, 12, 4.800025710238742e-09
0, 6, 13, 2.637574159081169e-09
0, 6, 14, 2.152663158838664e-09
0, 6, 15, 8.716311228340601e-09
0, 6, 16, 1.323433895805692e-08
0, 6, 17, 3.033260753682043e-09
0, 6, 18, 8.509721816096771e-09
0, 6, 19, 1.858856957248634e-09
0, 6, 20, 1.168705221488153e-08
0, 6, 21, 2.685308198024927e-09
0, 6, 22, 2.53363907631865e-08
0, 6, 23, 6.964427701205977e-09
0, 6, 24, 8.632758508042571e-09
0, 6, 25, 6.680490383104143e-09
0, 6, 26, 3.91640098129642e-09
0, 6, 27, 5.595726548790481e-09
0, 6, 28, 1.156447049233122e-09
0, 6, 29, 7.338158525271865e-09
0, 6, 30, 0
0, 6, 31, 7.268313506614277e-09
0, 6, 32, 8.943513485348831e-09
0, 6, 33, 8.760695280329855e-09
0, 6, 34, 6.488892756451037e-10
0, 6, 35, 0
0, 6, 36, 1.626066392645953e-08
0, 6, 37, 3.75814801500951e-09
0, 6, 38, 4.720042579009487e-09
0, 6, 39, 5.59261881249995e-09
0, 6, 40, 5.009872960926032e-09
0, 6, 41, 4.848088153153185e-09
0, 6, 42, 1.760472478906649e-08
0, 6, 43, 1.470357058330762e-09
0, 6, 44, 3.758730826586287e-10
0, 6, 45, 3.9295784404203e-09
0, 6, 46, 7.771362220410083e-09
0, 6, 47, 0
0, 6, 48, 9.436283754382657e-09
0, 6, 49, 4.26003143871867e-09
0, 7, 0, 5.960412718941654e-10
0, 7, 1, 1.074801136979886e-08
0, 7, 2, 0
0, 7, 3, 5.251671097994404e-09
0, 7, 4, 1.152580608732023e-08
0, 7, 5, 6.590199497225058e-09
0, 7, 6, 5.486505028073907e-09
0, 7, 7, 1.058804954823245e-08
0, 7, 8, 1.967848772821412e-09
0, 7, 9, 0
0, 7, 10, 4.791784302682345e-09
0, 7, 11, 9.552030277859558e-09
0, 7, 12, 7.198591500667817e-09
0, 7, 13, 7.710275085059948e-09
0, 7, 14, 1.141115113512114e-08
0, 7, 15, 7.047658012737656e-09
0, 7, 16, 2.244992414190961e-09
0, 7, 17, 1.038047958701327e-08
0, 7, 18, 1.029514340444848e-08
0, 7, 19, 2.409727972718656e-10
0, 7, 20, 1.399418447789458e-08
0, 7, 21, 9.673150280775644e-09
0, 7, 22, 1.586767872652217e-08
0, 7, 23, 9.252200783294029e-09
0, 7, 24, 7.97813726194363e-09
0, 7, 25, 7.357200626501026e-09
0, 7, 26, 9.840381842707302e-09
0, 7, 27, 7.616984376568325e-09
0, 7, 28, 1.257371806673291e-08
0, 7, 29, 7.820365688360198e-09
0, 7, 30, 1.1339080785433e-08
0, 7, 31, 2.644640950677513e-09
0, 7, 32, 6.80302969513491e-09
0, 7, 33, 4.886450799546083e-09
0, 7, 34, 8.807836238133859e-09
0, 7, 35, 4.638950557023236e-09
0, 7, 36, 3.834986106454608e-09
0, 7, 37, 5.544156689296642e-09
0, 7, 38, 9.028566338997734e-09
0, 7, 39, 6.837807209336688e-09
0, 7, 40, 1.442998698308884e-08
0, 7, 41, 7.188762030096996e-09
0, 7, 42, 4.655297924927027e-09
0, 7, 43, 5.046669304675788e-09
0, 7, 44, 7.719537897799e-09
0, 7, 45, 5.115716739112486e-09
0, 7, 46, 1.260076487596962e-09
0, 7, 47, 2.123761611017017e-09
0, 7, 48, 5.08869169024706e-10
0, 7, 49, 1.716453290612208e-08
0, 8, 0, 5.225082144733051e-09
0, 8, 1, 0
0, 8, 2, 1.025514784203096e-09
0, 8, 3, 0
0, 8, 4, 1.988734066316056e-09
0, 8, 5, 2.0129538924607e-08
0, 8, 6, 9.092779862385214e-09
0, 8, 7, 1.071933741769726e-08
0, 8, 8, 1.108985459019607e-09
0, 8, 9, 2.583122382660008e-09
0, 8, 10, 1.19963106115506e-08
0, 8, 11, 6.280692545906907e-12
0, 8, 12, 6.15601836173596e-09
0, 8, 13, 1.111863667802027e-08
0, 8, 14, 4.306124790076638e-09
0, 8, 15, 5.095033728252929e-09
0, 8, 16, 5.925835377951216e-09
0, 8, 17, 4.742786163802748e-09
0, 8, 18, 6.646740935423168e-09
0, 8, 19, 1.489268530718846e-08
0, 8, 20, 3.800276537901937e-09
0, 8, 21, 1.422306272758078e-09
0, 8, 22, 1.903503310529686e-08
0, 8, 23, 7.06272329509261e-09
0, 8, 24, 8.485175229111519e-09
0, 8, 25, 4.645271278747032e-09
0, 8, 26, 5.476332276543872e-09
0, 8, 27, 2.472260085539801e-08
0, 8, 28, 3.106287138621155e-08
0, 8, 29, 3.917830948552137e-09
0, 8, 30, 3.006916660108772e-10
0, 8, 31, 1.258051174346519e-08
0, 8, 32, 4.647779050515055e-09
0, 8, 33, 3.69051567084e-09
0, 8, 34, 7.611499874826677e-09
0, 8, 35, 1.147275696666838e-08
0, 8, 36, 9.934017164425768e-09
0, 8, 37, 1.75386438705516e-09
0, 8, 38, 5.250074597284993e-09
0, 8, 39, 2.127288567521646e-08
0, 8, 40, 1.535226168414283e-08
0, 8, 41, 9.199826678241152e-09
0, 8, 42, 5.120247337231376e-09
0, 8, 43, 1.653082826180707e-08
0, 8, 44, 3.534766035429016e-09
0, 8, 45, 2.091545603377654e-08
0, 8, 46, 1.871028487698823e-08
0, 8, 47, 7.122933354253291e-09
0, 8, 48, 6.394822005262313e-09
0, 8, 49, 2.509149688023626e-08
0, 9, 0, 4.340409365255482e-09
0, 9, 1, 1.116566283876352e-09
0, 9, 2, 8.242096782851149e-09
0, 9, 3, 0
0, 9, 4, 0
0, 9, 5, 8.641906079631667e-10
0, 9, 6, 5.798680202673268e-09
0, 9, 7, 6.925240825239598e-09
0, 9, 8, 3.706996487551351e-09
0, 9, 9, 1.92603510917877e-09
0, 9, 10, 6.273508379450732e-09
0, 9, 11, 1.527812187873678e-08
0, 9, 12, 5.292514870802734e-09
0, 9, 13, 3.953459337679988e-09
0, 9, 14, 1.719297060276403e-08
0, 9, 15, 2.61252819377944e-09
0, 9, 16, 2.375890417738447e-08
0, 9, 17, 1.854863107553228e-08
0, 9, 18, 7.551329339605672e-09
0, 9, 19, 1.001398874933557e-08
0, 9, 20, 8.062960077381831e-09
0, 9, 21, 1.994050613518539e-08
0, 9, 22, 1.179256869932033e-08
0, 9, 23, 4.833520250713264e-09
0, 9, 24, 8.942336648942728e-09
0, 9, 25, 4.795902341925284e-09
0, 9, 26, 9.110056709005221e-09
0, 9, 27, 2.5408504189528e-09
0, 9, 28, 1.363973733958801e-08
0, 9, 29, 2.378747754328003e-10
0, 9, 30, 2.521498210228401e-08
0, 9, 31, 1.63202287239983e-08
0, 9, 32, 4.652262575177701e-09
0, 9, 33, 4.178979828850515e-09
0, 9, 34, 8.359683612013669e-09
0, 9, 35, 9.334955031192749e-09
0, 9, 36, 2.645774488385655e-09
0, 9, 37, 2.38346888892238e-08
0, 9, 38, 6.350093340046215e-09
0, 9, 39, 8.93311913330308e-09
0, 9, 40, 2.361727347022224e-08
0, 9, 41, 1.272867056201221e-08
0, 9, 42, 6.660437090744153e-09
0, 9, 43, 5.487468257570072e-09
0, 9, 44, 4.541172771155289e-09
0, 9, 45, 9.218505070407446e-09
0, 9, 46, 7.047180172747858e-09
0, 9, 47, 6.032306210101979e-09
0, 9, 48, 1.557328843659889e-08
0, 9, 49, 3.05384908472206e-08
0, 10, 0, 1.241801328433212e-08
0, 10, 1, 3.409965643186297e-09
0, 10, 2, 6.718130052263405e-09
0, 10, 3, 6.134592833717534e-09
0, 10, 4, 1.753585721075979e-08
0, 10, 5, 5.620269138972844e-09
0, 10, 6, 6.07693717569191e-09
0, 10, 7, 6.202622859774465e-09
0, 10, 8, 4.138288378641164e-09
0, 10, 9, 7.651154376731029e-09
0, 10, 10, 1.456531562027408e-09
0, 10, 11, 9.824728586238507e-09
0, 10, 12, 5.026502325478077e-09
0, 10, 13, 1.463421495095929e-09
0, 10, 14, 2.292815537430215e-08
0, 10, 15, 1.645100833336244e-09
0, 10, 16, 4.373311934813273e-09
0, 10, 17, 1.027179585832982e-08
0, 10, 18, 1.73619518761825e-08
0, 10, 19, 1.19131335907241e-08
0, 10, 20, 2.647107200104415e-09
0, 10, 21, 6.818452025214583e-09
0, 10, 22, 2.429211720667013e-09
0, 10, 23, 2.493667716763071e-09
0, 10, 24, 2.518536046380859e-09
0, 10, 25, 9.83014114552816e-09
0, 10, 26, 5.157883009587749e-09
0, 10, 27, 5.803689084871166e-09
0, 10, 28, 1.030710272686974e-08
0, 10, 29, 7.270329671626996e-09
0, 10, 30, 1.942086669259879e-08
0, 10, 31, 1.80227974766467e-08
0, 10, 32, 3.327576880707284e-09
0, 10, 33, 1.137976646248262e-08
0, 10, 34, 1.749771438852576e-09
0, 10, 35, 8.188898448224791e-09
0, 10, 36, 6.792371665120811e-10
0, 10, 37, 7.625327924642988e-09
0, 10, 38, 3.614600885271102e-08
0, 10, 39, 2.032825996423071e-08
0, 10, 40, 9.179327520314473e-09
0, 10, 41, 5.466115560182061e-09
0, 10, 42, 1.21996119803458e-11
0, 10, 43, 6.062415902619023e-09
0, 10, 44, 3.928339431524819e-09
0, 10, 45, 1.095584600818711e-08
0, 10, 46, 8.180299992943674e-09
0, 10, 47, 8.969509579515034e-09
0, 10, 48, 1.409960148635037e-08
0, 10, 49, 8.226497705265956e-09
0, 11, 0, 1.593099163699208e-08
0, 11, 1, 1.70827902934434e-08
0, 11, 2, 9.100950215668036e-09
0, 11, 3, 3.490645106296597e-09
0, 11, 4, 5.695700799890346e-09
0, 11, 5, 1.06662607635144e-08
0, 11, 6, 1.294779750082853e-08
0, 11, 7, 4.630714478537357e-09
0, 11, 8, 1.771201674216627e-08
0, 11, 9, 1.121816084470595e-09
0, 11, 10, 7.355868802960686e-09
0, 11, 11, 3.662191438991158e-09
0, 11, 12, 4.923284446789467e-09
0, 11, 13, 1.190978604626025e-08
0, 11, 14, 4.148524190838998e-09
0, 11, 15, 7.252267231194764e-09
0, 11, 16, 6.245685746364416e-09
0, 11, 17, 5.030209138112696e-09
0, 11, 18, 1.316529196770944e-08
0, 11, 19, 2.098447815512827e-08
0, 11, 20, 9.280674895251195e-09
0, 11, 21, 1.95217308984752e-09
0, 11, 22, 2.629505724272008e-09
0, 11, 23, 1.228430157595994e-08
0, 11, 24, 4.086688765170265e-09
0, 11, 25, 8.257539541034475e-09
0, 11, 26, 8.801194439911342e-09
0, 11, 27, 1.002262184357505e-08
0, 11, 28, 1.082249667661017e-08
0, 11, 29, 5.961747984173371e-09
0, 11, 30, 7.785814659655443e-09
0, 11, 31, 9.051971616713672e-09
0, 11, 32, 3.186945818356435e-09
0, 11, 33, 4.898658367835651e-09
0, 11, 34, 2.03298196055357e-08
0, 11, 35, 8.720029143205466e-09
0, 11, 36, 7.603390805854815e-09
0, 11, 37, 8.924094352380507e-09
0, 11, 38, 1.351221001755221e-08
0, 11, 39, 2.258802744847799e-08
0, 11, 40, 1.678202643518034e-08
0, 11, 41, 2.250298170025644e-09
0, 11, 42, 1.125174620142388e-08
0, 11, 43, 4.154135702094663e-09
0, 11, 44, 5.208591336014479e-09
0, 11, 45, 7.765451393026979e-09
0, 11, 46, 6.623372517111648e-09
0, 11, 47, 3.937314030366679e-09
0, 11, 48, 9.985448023996923e-09
0, 11, 49, 2.326558501408726e-09
0, 12, 0, 6.958750020658044e-09
0, 12, 1, 1.824671302941283e-09
0, 12, 2, 4.793383467927015e-09
0, 12, 3, 8.126577633049692e-09
0, 12, 4, 1.728675158574333e-08
0, 12, 5, 4.546342857736363e-09
0, 12, 6, 7.641534516267257e-09
0, 12, 7, 5.163849348122085e-09
0, 12, 8, 2.073722171758163e-08
0, 12, 9, 5.355802912276886e-09
0, 12, 10, 3.994314212718564e-09
0, 12, 11, 1.391699466779528e-08
0, 12, 12, 1.343937672260154e-08
0, 12, 13, 0
0, 12, 14, 4.463501568352513e-09
0, 12, 15, 1.295392149103236e-08
0, 12, 16, 1.194858167963275e-08
0, 12, 17, 7.957420500304124e-09
0, 12, 18, 1.11883213804731e-08
0, 12, 19, 1.036121144437629e-08
0, 12, 20, 9.012070201208644e-09
0, 12, 21, 4.452256785469899e-09
0, 12, 22, 7.199095986010207e-09
0, 12, 23, 7.56256302025804e-09
0, 12, 24, 1.245550595996292e-08
0, 12, 25, 7.878109720138582e-09
0, 12, 26, 8.571742426966011e-09
0, 12, 27, 1.322414799886928e-08
0, 12, 28, 2.269451115921584e-08
0, 12, 29, 1.205291955130861e-08
0, 12, 30, 9.133967360241968e-09
0, 12, 31, 5.990579143855257e-09
0, 12, 32, 1.869253196673526e-08
0, 12, 33, 1.405826122180542e-08
0, 12, 34, 1.733974386297632e-08
0, 12, 35, 1.499321911069273e-08
0, 12, 36, 2.07632790960588e-08
0, 12, 37, 1.397601590014119e-08
0, 12, 38, 2.324676273701698e-08
0, 12, 39, 9.968326608600364e-09
0, 12, 40, 4.175392476213347e-09
0, 12, 41, 9.137212764187552e-09
0, 12, 42, 2.255463016354042e-08
0, 12, 43, 1.762812651406875e-08
0, 12, 44, 6.755014769765921e-09
0, 12, 45, 1.224498635821192e-08
0, 12, 46, 1.659190473901617e-08
0, 12, 47, 6.634627514046088e-09
0, 12, 48, 8.162475140238712e-09
0, 12, 49, 1.623441292508687e-08
0, 13, 0, 6.214930792225459e-09
0, 13, 1, 6.354523574003679e-09
0, 13, 2, 7.746006502884484e-09
0, 13, 3, 3.350774591126537e-08
0, 13, 4, 6.879633307477206e-09
0, 13, 5, 3.317229158028567e-09
0, 13, 6, 2.413538879864063e-08
0, 13, 7, 5.636164868150217e-10
0, 13, 8, 5.567951433249618e-09
0, 13, 9, 1.46393552835633e-09
0, 13, 10, 1.17218021955523e-08
0, 13, 11, 6.986243583639862e-09
0, 13, 12, 5.860748775177171e-09
0, 13, 13, 1.265411153639207e-08
0, 13, 14, 6.850973566230323e-09
0, 13, 15, 2.675723642653338e-09
0, 13, 16, 2.110164132318459e-08
0, 13, 17, 1.258976922713373e-08
0, 13, 18, 8.654962080356654e-09
0, 13, 19, 5.247058787460901e-09
0, 13, 20, 1.349858713695085e-08
0, 13, 21, 1.455027831553934e-08
0, 13, 22, 1.830095541777155e-08
0, 13, 23, 8.770498105548086e-09
0, 13, 24, 5.542228009858263e-09
0, 13, 25, 5.999330365824562e-09
0, 13, 26, 7.27425719659891e-09
0, 13, 27, 1.876924393684476e-08
0, 13, 28, 1.611682343138909e-08
0, 13, 29, 4.330213410064232e-10
0, 13, 30, 1.072024780057745e-08
0, 13, 31, 5.906999334115426e-09
0, 13, 32, 5.854452922449127e-09
0, 13, 33, 1.154917494972096e-08
0, 13, 34, 7.109240307556774e-09
0, 13, 35, 6.316954515028783e-09
0, 13, 36, 9.852230142826102e-09
0, 13, 37, 1.221842360621395e-08
0, 13, 38, 1.065248156351117e-08
0, 13, 39, 7.514133315567051e-09
0, 13, 40, 3.264232217858876e-09
0, 13, 41, 6.879840253048997e-09
0, 13, 42, 2.338276594571198e-08
0, 13, 43, 5.821074733347587e-09
0, 13, 44, 1.69490643742165e-09
0, 13, 45, 1.67011240392867e-08
0, 13, 46, 6.818559938892577e-09
0, 13, 47, 1.064465493527678e-08
0, 13, 48, 1.535716775968865e-09
0, 13, 49, 7.781728150746403e-09
0, 14, 0, 1.030405893942543e-08
0, 14, 1, 6.083507919640851e-09
0, 14, 2, 1.584607112192771e-08
0, 14, 3, 1.167135454949175e-08
0, 14, 4, 2.146233768485217e-08
0, 14, 5, 2.064623139119703e-08
0, 14, 6, 1.309417818617931e-08
0, 14, 7, 6.69912791906313e-09
0, 14, 8, 1.556393058876893e-08
0, 14, 9, 4.013953613934973e-09
0, 14, 10, 1.904816215869687e-08
0, 14, 11, 1.272483896030963e-08
0, 14, 12, 4.213951854126208e-09
0, 14, 13, 5.998997743006385e-09
0, 14, 14, 5.085550203176581e-09
0, 14, 15, 1.542911931551316e-08
0, 14, 16, 5.912503375782308e-09
0, 14, 17, 6.253151774160415e-09
0, 14, 18, 1.725287690490518e-09
0, 14, 19, 7.11058545377341e-09
0, 14, 20, 1.28381856256965e-08
0, 14, 21, 7.623236264464595e-09
0, 14, 22, 1.054425791124913e-08
0, 14, 23, 1.125096016352245e-09
0, 14, 24, 4.690004384855229e-09
0, 14, 25, 5.746724873745279e-09
0, 14, 26, 7.610709285010842e-10
0, 14, 27, 2.235380103243756e-09
0, 14, 28, 8.573505461129116e-09
0, 14, 29, 7.452330308410637e-09
0, 14, 30, 1.563297935547325e-08
0, 14, 31, 1.284628226017048e-08
0, 14, 32, 1.069929567165673e-08
0, 14, 33, 8.120504269015782e-09
0, 14, 34, 8.662840222939394e-09
0, 14, 35, 7.564988635522241e-09
0, 14, 36, 4.348007287546807e-09
0, 14, 37, 1.466847354691936e-08
0, 14, 38, 1.053167686393408e-08
0, 14, 39, 1.624793100063471e-08
0, 14, 40, 1.647645753166671e-08
0, 14, 41, 1.561255302817699e-08
0, 14, 42, 9.594593564088427e-09
0, 14, 43, 3.423319405726488e-09
0, 14, 44, 1.423756668117448e-08
0, 14, 45, 1.331122945202878e-08
0, 14, 46, 7.466468332495424e-09
0, 14, 47, 6.99984337160231e-09
0, 14, 48, 2.063648363304083e-09
0, 14, 49, 2.222617112579428e-08
0, 15, 0, 3.509518009536805e-09
0, 15, 1, 1.332097365747131e-08
0, 15, 2, 1.57941553169394e-08
0, 15, 3, 4.984097579097124e-09
0, 15, 4, 3.58931040445043e-09
0, 15, 5, 1.181654241122487e-08
0, 15, 6, 7.139882018947219e-09
0, 15, 7, 1.346651501421547e-08
0, 15, 8, 7.261238721412155e-09
0, 15, 9, 1.462887322389861e-08
0, 15, 10, 0
0, 15, 11, 1.723084253058005e-08
0, 15, 12, 1.340037325547883e-08
0, 15, 13, 1.08694946376886e-08
0, 15, 14, 1.029584240086479e-08
0, 15, 15, 1.047742781423722e-08
0, 15, 16, 1.162370288909642e-08
0, 15, 17, 1.095799095907068e-08
0, 15, 18, 8.531447548421056e-09
0, 15, 19, 1.702966834216113e-08
0, 15, 20, 1.611018873859393e-08
0, 15, 21, 1.819579331652221e-08
0, 15, 22, 6.292763532478318e-10
0, 15, 23, 6.083417769531252e-09
0, 15, 24, 1.270716154522233e-08
0, 15, 25, 2.250482999954784e-08
0, 15, 26, 2.043473124047068e-08
0, 15, 27, 3.594341269064216e-09
0, 15, 28, 1.834446372583898e-08
0, 15, 29, 1.097287150031434e-08
0, 15, 30, 8.11426303926055e-09
0, 15, 31, 6.450004530478282e-09
0, 15, 32, 3.774678791756969e-09
0, 15, 33, 1.286891748719654e-08
0, 15, 34, 9.71080726941409e-09
0, 15, 35, 2.056258807670019e-08
0, 15, 36, 1.532403004489424e-08
0, 15, 37, 7.698536919065191e-09
0, 15, 38, 5.877156983302712e-09
0, 15, 39, 3.375359547419521e-09
0, 15, 40, 3.883290844441945e-08
0, 15, 41, 3.876453380513567e-09
0, 15, 42, 2.005750943112616e-08
0, 15, 43, 6.622528303523723e-09
0, 15, 44, 3.398649583985502e-09
0, 15, 45, 6.954903764011533e-09
0, 15, 46, 8.099951820383922e-09
0, 15, 47, 7.004353985706757e-09
0, 15, 48, 1.662112580902431e-08
0, 15, 49, 1.63088991200766e-08
0, 16, 0, 4.289801847079389e-09
0, 16, 1, 5.804395630804038e-09
0, 16, 2, 9.559928848545951e-09
0, 16, 3, 2.082894523525169e-09
0, 16, 4, 1.064031529551812e-08
0, 16, 5, 3.023868710982924e-09
0, 16, 6, 7.780798227940977e-09
0, 16, 7, 8.450160016160169e-10
0, 16, 8, 2.079238115015869e-08
0, 16, 9, 7.417239711315915e-09
0, 16, 10, 3.04476310830637e-09
0, 16, 11, 4.595650526795225e-09
0, 16, 12, 1.329149590389989e-08
0, 16, 13, 1.096693758029232e-08
0, 16, 14, 7.792887224411515e-09
0, 16, 15, 2.850559965850152e-08
0, 16, 16, 1.241957026110185e-08
0, 16, 17, 1.358041323840098e-08
0, 16, 18, 2.715357716454037e-09
0, 16, 19, 2.682916822038806e-08
0, 16, 20, 1.64743063635342e-08
0, 16, 21, 1.269259630731767e-08
0, 16, 22, 2.030778922801346e-08
0, 16, 23, 4.902973138598554e-09
0, 16, 24, 9.046718041361146e-09
0, 16, 25, 9.379298226974697e-09
0, 16, 26, 1.22693268878038e-08
0, 16, 27, 5.734066110818503e-09
0, 16, 28, 1.898978041481314e-08
0, 16, 29, 6.774485861171797e-09
0, 16, 30, 6.672348895619962e-09
0, 16, 31, 3.957422833877899e-09
0, 16, 32, 1.697131501998683e-08
0, 16, 33, 3.182391683509422e-09
0, 16, 34, 6.181941181182538e-09
0, 16, 35, 9.333964712254783e-09
0, 16, 36, 0
0, 16, 37, 3.544279758571633e-09
0, 16, 38, 4.867488101467643e-08
0, 16, 39, 1.29906361223675e-08
0, 16, 40, 2.869357196289002e-09
0, 16, 41, 4.437019196501524e-09
0, 16, 42, 2.322762204798323e-09
0, 16, 43, 5.067805730618602e-09
0, 16, 44, 1.003566563184677e-08
0, 16, 45, 8.9459737395714e-09
0, 16, 46, 1.047135445020331e-08
0, 16, 47, 6.68656996438699e-09
0, 16, 48, 4.014884424918819e-09
0, 16, 49, 6.175260303109553e-09
0, 17, 0, 1.430460372375819e-08
0, 17, 1, 5.652561085867092e-09
0, 17, 2, 0
0, 17, 3, 2.42593571897487e-08
0, 17, 4, 1.415533024129445e-08
0, 17, 5, 7.106885746566149e-09
0, 17, 6, 7.541482993644877e-09
0, 17, 7, 1.222687995294791e-08
0, 17, 8, 1.527338788775978e-08
0, 17, 9, 1.003900962359694e-08
0, 17, 10, 1.034987562320566e-08
0, 17, 11, 1.311138042581206e-08
0, 17, 12, 1.337454924588144e-09
0, 17, 13, 1.025705742563332e-08
0, 17, 14, 0
0, 17, 15, 1.10666462660447e-08
0, 17, 16, 2.666468601475458e-09
0, 17, 17, 4.295835243084412e-09
0, 17, 18, 1.17494574070065e-08
0, 17, 19, 6.594464974085668e-09
0, 17, 20, 3.366562806306206e-09
0, 17, 21, 7.104092869525402e-09
0, 17, 22, 8.170077947511345e-09
0, 17, 23, 1.247693770523028e-08
0, 17, 24, 1.245071512556706e-08
0, 17, 25, 2.578686064680369e-08
0, 17, 26, 5.828108218253192e-09
0, 17, 27, 1.916942160562485e-08
0, 17, 28, 3.88876619794587e-09
0, 17, 29, 4.715848600511663e-09
0, 17, 30, 1.005499772332996e-08
0, 17, 31, 1.101367708145062e-08
0, 17, 32, 1.989202580432448e-08
0, 17, 33, 2.884170591244128e-08
0, 17, 34, 1.090722800967114e-08
0, 17, 35, 5.745111941735104e-09
0, 17, 36, 3.151890481944974e-08
0, 17, 37, 2.752114802717642e-08
0, 17, 38, 1.115764725057034e-08
0, 17, 39, 1.947434036253526e-08
0, 17, 40, 8.429674180909785e-10
0, 17, 41, 2.485706040999958e-08
0, 17, 42, 1.472782162892372e-08
0, 17, 43, 1.504117719264286e-08
0, 17, 44, 4.710948520170177e-09
0, 17, 45, 1.213506628516825e-08
0, 17, 46, 1.503770086230816e-08
0, 17, 47, 2.971101054072278e-08
0, 17, 48, 7.979867433505206e-09
0, 17, 49, 8.098850479143493e-09
0, 18, 0, 5.991822149553627e-09
0, 18, 1, 1.128824944629514e-08
0, 18, 2, 9.103255038667157e-09
0, 18, 3, 1.111353853389119e-08
0, 18, 4, 0
0, 18, 5, 4.674459574971479e-08
0, 18, 6, 1.21983001477588e-08
0, 18, 7, 6.973684296696092e-09
0, 18, 8, 1.191760201635361e-08
0, 18, 9, 2.522074549204945e-09
0, 18, 10, 8.392151418235017e-10
0, 18, 11, 7.860303519180434e-09
0, 18, 12, 8.459199563048969e-09
0, 18, 13, 1.371642532888018e-08
0, 18, 14, 1.253478831841903e-08
0, 18, 15, 1.04241770770841e-08
0, 18, 16, 1.026003459969616e-08
0, 18, 17, 3.940434201155085e-09
0, 18, 18, 1.504677626940065e-08
0, 18, 19, 1.555394568697466e-08
0, 18, 20, 6.989788747802095e-09
0, 18, 21, 8.731904976855276e-09
0, 18, 22, 5.216659104689825e-09
0, 18, 23, 1.615291367329519e-08
0, 18, 24, 2.172609114836632e-08
0, 18, 25, 1.439132901737139e-08
0, 18, 26, 1.257184578662418e-08
0, 18, 27, 5.955661741552376e-09
0, 18, 28, 8.422547104203204e-09
0, 18, 29, 8.213432600712167e-09
0, 18, 30, 1.061093968246496e-08
0, 18, 31, 1.805454452608046e-08
0, 18, 32, 1.434256624577301e-08
0, 18, 33, 4.764569627724313e-09
0, 18, 34, 5.768427069341442e-09
0, 18, 35, 9.822297641903788e-09
0, 18, 36, 1.352640577323427e-08
0, 18, 37, 1.494645829325236e-08
0, 18, 38, 2.139251620292271e-08
0, 18, 39, 1.635700286328756e-08
0, 18, 40, 5.537003300304377e-09
0, 18, 41, 1.426096929435516e-08
0, 18, 42, 1.08712754354201e-08
0, 18, 43, 1.187672271640849e-08
0, 18, 44, 1.579046582378396e-08
0, 18, 45, 1.14062439493523e-08
0, 18, 46, 1.199822907693715e-08
