# TOPAS Version: 3.7
# Parameter File: TestingDose6.txt
# Results for scorer TestingDose6
# Scored in component: Phantom
# X in 50 bins of 0.1 cm
# Y in 50 bins of 0.1 cm
# Z in 50 bins of 0.1 cm
# DoseToMedium ( Gy ) : Sum   
0, 0, 0, 6.543147357263024e-09
0, 0, 1, 0
0, 0, 2, 7.701516757663285e-09
0, 0, 3, 0
0, 0, 4, 2.616132421806583e-09
0, 0, 5, 0
0, 0, 6, 0
0, 0, 7, 1.39943523436159e-08
0, 0, 8, 2.134774135242878e-09
0, 0, 9, 1.816324091130639e-09
0, 0, 10, 3.672037562907349e-09
0, 0, 11, 4.463341252147757e-09
0, 0, 12, 4.839700196157537e-09
0, 0, 13, 5.543431491616957e-09
0, 0, 14, 3.633771061828384e-09
0, 0, 15, 1.103952573799916e-08
0, 0, 16, 9.088146235569639e-09
0, 0, 17, 1.623303602649173e-09
0, 0, 18, 1.040843500277333e-08
0, 0, 19, 5.323846696825285e-09
0, 0, 20, 2.175343016830311e-09
0, 0, 21, 6.476232439212026e-09
0, 0, 22, 1.681145334053724e-09
0, 0, 23, 9.789321353537161e-09
0, 0, 24, 5.711889183857011e-09
0, 0, 25, 1.393873727550954e-08
0, 0, 26, 5.303645966847625e-09
0, 0, 27, 5.772929689840112e-09
0, 0, 28, 4.807494957681513e-10
0, 0, 29, 9.506170961515181e-09
0, 0, 30, 8.903914050506501e-09
0, 0, 31, 3.000727222257638e-09
0, 0, 32, 2.291096734552411e-08
0, 0, 33, 5.89970250430838e-09
0, 0, 34, 6.589830459091672e-09
0, 0, 35, 1.135552096798165e-08
0, 0, 36, 1.095888979563142e-08
0, 0, 37, 4.511788720407139e-09
0, 0, 38, 6.074002190104011e-09
0, 0, 39, 6.621168502363162e-09
0, 0, 40, 1.836882823624819e-08
0, 0, 41, 3.723328090288192e-09
0, 0, 42, 0
0, 0, 43, 9.711071946583161e-09
0, 0, 44, 3.326767750166937e-10
0, 0, 45, 4.020915156388583e-09
0, 0, 46, 1.132968741046625e-08
0, 0, 47, 0
0, 0, 48, 1.851899522620215e-09
0, 0, 49, 1.710238350938198e-08
0, 1, 0, 4.114392826437552e-09
0, 1, 1, 5.967861316236167e-09
0, 1, 2, 4.654055807407076e-09
0, 1, 3, 9.928641020451323e-09
0, 1, 4, 5.228832034021025e-09
0, 1, 5, 5.539147363009533e-09
0, 1, 6, 1.548439376719557e-09
0, 1, 7, 5.213198761566673e-09
0, 1, 8, 7.082416875192621e-09
0, 1, 9, 3.443834328820117e-09
0, 1, 10, 0
0, 1, 11, 0
0, 1, 12, 3.722391950233828e-09
0, 1, 13, 4.896011596144945e-09
0, 1, 14, 0
0, 1, 15, 1.12178071276503e-08
0, 1, 16, 2.962960543584359e-09
0, 1, 17, 2.604969129293977e-09
0, 1, 18, 4.83205031542866e-09
0, 1, 19, 0
0, 1, 20, 2.04083439037106e-09
0, 1, 21, 0
0, 1, 22, 7.626279163730487e-09
0, 1, 23, 6.749339309664038e-09
0, 1, 24, 0
0, 1, 25, 4.355614535711538e-09
0, 1, 26, 6.520305184665176e-09
0, 1, 27, 1.070085575705093e-09
0, 1, 28, 2.530470766259896e-08
0, 1, 29, 4.170526590741019e-09
0, 1, 30, 4.617505489079576e-09
0, 1, 31, 9.889696839238127e-10
0, 1, 32, 6.486820414153271e-09
0, 1, 33, 1.002399763194717e-08
0, 1, 34, 1.038476948878042e-08
0, 1, 35, 1.010964023606675e-08
0, 1, 36, 4.127914454699066e-09
0, 1, 37, 6.000632879477052e-09
0, 1, 38, 4.311298429371391e-09
0, 1, 39, 5.967055738409499e-09
0, 1, 40, 8.519485672486837e-10
0, 1, 41, 1.190528209349395e-08
0, 1, 42, 1.008806549407382e-08
0, 1, 43, 2.933413512096195e-09
0, 1, 44, 7.394996170972945e-09
0, 1, 45, 1.504210422886842e-09
0, 1, 46, 2.131065768296025e-09
0, 1, 47, 1.046260411641242e-09
0, 1, 48, 1.814449568371401e-08
0, 1, 49, 4.322186608618495e-09
0, 2, 0, 2.406368215801535e-09
0, 2, 1, 1.010156225333958e-08
0, 2, 2, 3.359110323231107e-09
0, 2, 3, 6.958392972933325e-09
0, 2, 4, 2.781979535626533e-09
0, 2, 5, 4.356651484016538e-09
0, 2, 6, 1.388660630929905e-09
0, 2, 7, 9.744569595682151e-09
0, 2, 8, 4.367164851970529e-09
0, 2, 9, 2.577169366801968e-09
0, 2, 10, 5.199372932196411e-09
0, 2, 11, 5.312416728742164e-09
0, 2, 12, 7.253055489542248e-09
0, 2, 13, 1.62172728579435e-08
0, 2, 14, 1.218978518124914e-08
0, 2, 15, 7.935546317283659e-12
0, 2, 16, 2.049618474941894e-09
0, 2, 17, 4.042322032660195e-09
0, 2, 18, 9.625232832988218e-10
0, 2, 19, 0
0, 2, 20, 3.727621766813627e-09
0, 2, 21, 9.845780191142239e-09
0, 2, 22, 5.144058512485117e-09
0, 2, 23, 5.874952968554226e-09
0, 2, 24, 1.899605472921451e-10
0, 2, 25, 1.342631339440459e-08
0, 2, 26, 1.309522357217929e-08
0, 2, 27, 8.25874124643633e-09
0, 2, 28, 0
0, 2, 29, 0
0, 2, 30, 9.927046740187961e-09
0, 2, 31, 1.921368175672455e-09
0, 2, 32, 0
0, 2, 33, 2.117991115824225e-08
0, 2, 34, 5.527853286224627e-09
0, 2, 35, 2.392661402339513e-09
0, 2, 36, 1.083214851149705e-09
0, 2, 37, 1.82993034059109e-08
0, 2, 38, 8.317930344503566e-09
0, 2, 39, 2.614855354465817e-08
0, 2, 40, 7.902192233899541e-10
0, 2, 41, 1.195358212413566e-08
0, 2, 42, 1.092317436501844e-08
0, 2, 43, 1.517329262235023e-09
0, 2, 44, 3.061537023896221e-09
0, 2, 45, 8.837069964684474e-10
0, 2, 46, 7.094292708842431e-09
0, 2, 47, 3.230284928434912e-09
0, 2, 48, 8.322657840675873e-11
0, 2, 49, 4.073066772747325e-09
0, 3, 0, 8.074322543905055e-09
0, 3, 1, 1.569738827811307e-08
0, 3, 2, 1.088001577720377e-09
0, 3, 3, 3.459099007230293e-09
0, 3, 4, 4.148876353582409e-09
0, 3, 5, 1.82505932588839e-09
0, 3, 6, 0
0, 3, 7, 4.131364583770392e-09
0, 3, 8, 0
0, 3, 9, 2.526149955883739e-09
0, 3, 10, 1.55477619667721e-09
0, 3, 11, 9.323647631731546e-09
0, 3, 12, 6.224908588592371e-09
0, 3, 13, 0
0, 3, 14, 3.850392449322726e-09
0, 3, 15, 4.236497819221086e-09
0, 3, 16, 1.96560479004404e-09
0, 3, 17, 8.594575717779662e-09
0, 3, 18, 0
0, 3, 19, 5.104591860316532e-09
0, 3, 20, 0
0, 3, 21, 3.885169963524504e-09
0, 3, 22, 1.073646394011973e-09
0, 3, 23, 1.963569529195297e-09
0, 3, 24, 8.550517627270438e-09
0, 3, 25, 6.757613135732754e-09
0, 3, 26, 1.062404053620014e-09
0, 3, 27, 9.01956676013782e-10
0, 3, 28, 1.552596984311094e-08
0, 3, 29, 1.197665522312263e-08
0, 3, 30, 4.936693720480889e-09
0, 3, 31, 4.764503458432046e-09
0, 3, 32, 7.190777751020505e-09
0, 3, 33, 3.468638265502477e-09
0, 3, 34, 5.539893876971291e-09
0, 3, 35, 4.099329320439438e-09
0, 3, 36, 4.452457513792751e-09
0, 3, 37, 7.884317199113866e-09
0, 3, 38, 6.345387770778643e-09
0, 3, 39, 3.252937696984759e-09
0, 3, 40, 3.966627915019671e-09
0, 3, 41, 4.697381150720048e-09
0, 3, 42, 1.643114089233677e-08
0, 3, 43, 7.463704321253317e-09
0, 3, 44, 1.929754667173711e-08
0, 3, 45, 1.883687428261283e-09
0, 3, 46, 3.599697429024218e-09
0, 3, 47, 0
0, 3, 48, 9.93205606647507e-09
0, 3, 49, 9.377661980281005e-10
0, 4, 0, 7.917171807036993e-09
0, 4, 1, 3.653582325569005e-09
0, 4, 2, 1.720442455166449e-09
0, 4, 3, 0
0, 4, 4, 4.933447428356885e-09
0, 4, 5, 8.97488039441896e-09
0, 4, 6, 6.531097440642952e-09
0, 4, 7, 3.240911983226624e-10
0, 4, 8, 2.796496811896532e-09
0, 4, 9, 2.070886101490643e-10
0, 4, 10, 8.717211841258177e-09
0, 4, 11, 1.706928642875027e-08
0, 4, 12, 9.335033857027497e-10
0, 4, 13, 2.769105167388375e-09
0, 4, 14, 5.543448367006931e-09
0, 4, 15, 2.383858221932655e-09
0, 4, 16, 5.740985464797177e-09
0, 4, 17, 1.108798386439958e-08
0, 4, 18, 1.915181790934639e-09
0, 4, 19, 1.805631733020618e-08
0, 4, 20, 5.596263008555979e-09
0, 4, 21, 5.918040280050718e-09
0, 4, 22, 2.843643764904868e-09
0, 4, 23, 6.485328274408175e-09
0, 4, 24, 1.541881178290794e-09
0, 4, 25, 6.364961890881204e-09
0, 4, 26, 3.321259711697166e-09
0, 4, 27, 1.535741134262025e-08
0, 4, 28, 1.20453496066375e-08
0, 4, 29, 7.335203555669523e-10
0, 4, 30, 1.312795294694524e-08
0, 4, 31, 5.889900567268569e-09
0, 4, 32, 5.594991137058969e-09
0, 4, 33, 1.407537553177463e-08
0, 4, 34, 2.051740999320373e-09
0, 4, 35, 6.375645789091777e-09
0, 4, 36, 6.637931093678162e-09
0, 4, 37, 1.214445877195658e-09
0, 4, 38, 2.36974639911125e-09
0, 4, 39, 2.830140788390167e-09
0, 4, 40, 1.004367700119246e-08
0, 4, 41, 1.266652227549514e-09
0, 4, 42, 7.07009739642217e-09
0, 4, 43, 2.312415814387236e-09
0, 4, 44, 1.418983375245375e-09
0, 4, 45, 8.929211814390214e-10
0, 4, 46, 2.601309168070998e-09
0, 4, 47, 2.561918455157297e-09
0, 4, 48, 7.207192176394983e-09
0, 4, 49, 6.992906254055242e-11
0, 5, 0, 6.527694829117081e-09
0, 5, 1, 2.334421322913727e-09
0, 5, 2, 6.430020516035029e-09
0, 5, 3, 5.539527503373165e-09
0, 5, 4, 0
0, 5, 5, 2.195580606212388e-09
0, 5, 6, 8.958608965770054e-09
0, 5, 7, 5.021610238742369e-09
0, 5, 8, 4.248044138677187e-09
0, 5, 9, 3.689194505440696e-09
0, 5, 10, 6.124010187846807e-10
0, 5, 11, 4.071224954382835e-11
0, 5, 12, 1.259854176538511e-08
0, 5, 13, 5.237919431522187e-09
0, 5, 14, 1.660331649944169e-09
0, 5, 15, 4.803724085178374e-09
0, 5, 16, 1.994295839580218e-09
0, 5, 17, 2.090856199288282e-08
0, 5, 18, 2.098566209696173e-09
0, 5, 19, 0
0, 5, 20, 8.191529232703942e-09
0, 5, 21, 7.321805828297556e-09
0, 5, 22, 3.875326726188177e-09
0, 5, 23, 6.747204128743078e-09
0, 5, 24, 2.307225521747114e-08
0, 5, 25, 9.732589845157236e-09
0, 5, 26, 0
0, 5, 27, 2.204034288411094e-09
0, 5, 28, 5.015582615897074e-09
0, 5, 29, 1.420995410228443e-08
0, 5, 30, 4.575306356002784e-09
0, 5, 31, 1.732676668808608e-09
0, 5, 32, 2.102146368088142e-08
0, 5, 33, 1.389888293346075e-08
0, 5, 34, 8.008598229025665e-09
0, 5, 35, 2.901335172111885e-09
0, 5, 36, 6.067272906307153e-09
0, 5, 37, 1.283923278805332e-08
0, 5, 38, 5.828963534071363e-09
0, 5, 39, 4.306987655411376e-09
0, 5, 40, 1.19654997021712e-08
0, 5, 41, 7.693776282735598e-09
0, 5, 42, 4.774784123640075e-09
0, 5, 43, 5.420901949548806e-09
0, 5, 44, 2.007383370639104e-09
0, 5, 45, 8.580183674666841e-09
0, 5, 46, 2.813259181166927e-09
0, 5, 47, 6.016122267027413e-09
0, 5, 48, 0
0, 5, 49, 2.810392585317345e-09
0, 6, 0, 2.731993076210415e-09
0, 6, 1, 2.128254239508465e-09
0, 6, 2, 4.385092733372176e-09
0, 6, 3, 5.508280054300485e-09
0, 6, 4, 3.757426370043504e-09
0, 6, 5, 0
0, 6, 6, 0
0, 6, 7, 7.321412809346839e-09
0, 6, 8, 2.225546857914651e-09
0, 6, 9, 7.351347530715202e-09
0, 6, 10, 6.063554547353078e-09
0, 6, 11, 1.274990779620566e-08
0, 6, 12, 1.149211126261207e-08
0, 6, 13, 1.50899968076601e-08
0, 6, 14, 6.257323548197746e-09
0, 6, 15, 3.469962317481645e-09
0, 6, 16, 1.78845760423485e-09
0, 6, 17, 4.11102174524558e-09
0, 6, 18, 4.064660164004863e-09
0, 6, 19, 2.849834812579388e-10
0, 6, 20, 3.911447610249752e-09
0, 6, 21, 5.729003937915422e-09
0, 6, 22, 3.399970083250992e-09
0, 6, 23, 1.949264971656817e-09
0, 6, 24, 0
0, 6, 25, 3.306480644837961e-09
0, 6, 26, 7.857050121629072e-09
0, 6, 27, 4.748281767774643e-09
0, 6, 28, 2.800967013882882e-09
0, 6, 29, 4.162280298203314e-09
0, 6, 30, 2.312255276137876e-09
0, 6, 31, 8.834780906852302e-09
0, 6, 32, 8.503461934594725e-09
0, 6, 33, 1.909004865296993e-08
0, 6, 34, 4.613967874433911e-09
0, 6, 35, 2.319830993968708e-10
0, 6, 36, 7.549992631084024e-09
0, 6, 37, 2.329754700269859e-08
0, 6, 38, 1.327026666331221e-08
0, 6, 39, 3.039261953219352e-09
0, 6, 40, 8.716203758751817e-09
0, 6, 41, 7.422179315597077e-09
0, 6, 42, 3.809579762759085e-09
0, 6, 43, 1.638716007335006e-08
0, 6, 44, 4.875043480012664e-09
0, 6, 45, 1.225489043576999e-08
0, 6, 46, 5.622856069642523e-10
0, 6, 47, 6.867771684682111e-09
0, 6, 48, 5.278158798915911e-09
0, 6, 49, 2.882384997349163e-09
0, 7, 0, 3.121210179202194e-09
0, 7, 1, 7.573808247229863e-09
0, 7, 2, 8.902073744820882e-09
0, 7, 3, 0
0, 7, 4, 1.027727972169323e-10
0, 7, 5, 1.06129927068821e-09
0, 7, 6, 4.992219526656072e-09
0, 7, 7, 2.603620252727978e-08
0, 7, 8, 8.958198627340153e-09
0, 7, 9, 1.483813871772099e-08
0, 7, 10, 2.923767894458251e-09
0, 7, 11, 2.801137988228675e-09
0, 7, 12, 0
0, 7, 13, 8.465251610800806e-09
0, 7, 14, 5.946316328220291e-09
0, 7, 15, 1.800917082128706e-09
0, 7, 16, 5.730207863763326e-09
0, 7, 17, 2.058482495570502e-09
0, 7, 18, 1.14375326987215e-08
0, 7, 19, 1.285174966447755e-09
0, 7, 20, 2.077525174115635e-08
0, 7, 21, 1.413355565915708e-08
0, 7, 22, 4.309688161896474e-09
0, 7, 23, 7.375005495191544e-09
0, 7, 24, 1.072503152954596e-08
0, 7, 25, 3.882756782758179e-09
0, 7, 26, 0
0, 7, 27, 5.028889749070231e-09
0, 7, 28, 4.664311603619353e-09
0, 7, 29, 4.986441037857503e-09
0, 7, 30, 3.752044452909331e-09
0, 7, 31, 1.540168881319914e-08
0, 7, 32, 2.809624533028909e-09
0, 7, 33, 2.975700352791932e-09
0, 7, 34, 3.855697539023595e-09
0, 7, 35, 1.632782442584357e-08
0, 7, 36, 1.340000466143465e-08
0, 7, 37, 3.109406954138194e-09
0, 7, 38, 3.134557502448843e-09
0, 7, 39, 1.140594552140328e-08
0, 7, 40, 1.365628499172544e-08
0, 7, 41, 1.470361166155953e-08
0, 7, 42, 2.486633476905808e-08
0, 7, 43, 7.815290636870031e-09
0, 7, 44, 5.119726864677432e-09
0, 7, 45, 1.006827954341816e-08
0, 7, 46, 1.099232704859787e-08
0, 7, 47, 4.973396361407367e-09
0, 7, 48, 1.505423341541245e-08
0, 7, 49, 1.223098511360377e-08
0, 8, 0, 0
0, 8, 1, 1.142295502631896e-08
0, 8, 2, 1.489388501418887e-09
0, 8, 3, 6.135385532957116e-09
0, 8, 4, 3.179161112143447e-08
0, 8, 5, 5.282431825293088e-09
0, 8, 6, 4.029823585938175e-09
0, 8, 7, 0
0, 8, 8, 7.050637407246541e-09
0, 8, 9, 7.167578530697938e-09
0, 8, 10, 6.843858812999315e-10
0, 8, 11, 1.942226823814508e-08
0, 8, 12, 4.211440085555296e-09
0, 8, 13, 1.141701133633433e-08
0, 8, 14, 6.682864261975396e-10
0, 8, 15, 6.561505117019806e-09
0, 8, 16, 3.155648187203042e-09
0, 8, 17, 2.109257657423314e-08
0, 8, 18, 7.786660205510998e-09
0, 8, 19, 7.554466496806356e-10
0, 8, 20, 4.382338492092686e-09
0, 8, 21, 1.533530991082444e-08
0, 8, 22, 7.754330511033913e-09
0, 8, 23, 3.30164207085204e-09
0, 8, 24, 6.711248001778358e-09
0, 8, 25, 5.432823524387231e-09
0, 8, 26, 4.528127206526733e-09
0, 8, 27, 8.62076632301978e-09
0, 8, 28, 4.609908899055881e-09
0, 8, 29, 1.80278920680621e-08
0, 8, 30, 7.926533207580633e-09
0, 8, 31, 1.409878347402582e-08
0, 8, 32, 3.180830709936799e-09
0, 8, 33, 2.728400172458123e-09
0, 8, 34, 9.595542138640667e-10
0, 8, 35, 7.062986639994051e-09
0, 8, 36, 1.501599200537385e-08
0, 8, 37, 1.879528088721827e-09
0, 8, 38, 6.930559681705972e-09
0, 8, 39, 1.763665835596839e-08
0, 8, 40, 3.567989903530133e-09
0, 8, 41, 2.483047012447059e-08
0, 8, 42, 1.082906297966701e-08
0, 8, 43, 1.475606037359967e-08
0, 8, 44, 1.079829115013808e-09
0, 8, 45, 9.707742165687705e-09
0, 8, 46, 1.872879629161162e-09
0, 8, 47, 1.415502115520439e-08
0, 8, 48, 7.200738671997442e-09
0, 8, 49, 1.780464220502154e-09
0, 9, 0, 1.565226348532178e-08
0, 9, 1, 2.721221914470107e-09
0, 9, 2, 3.778943824528369e-09
0, 9, 3, 0
0, 9, 4, 7.137723301298138e-09
0, 9, 5, 1.363593327141643e-08
0, 9, 6, 2.735109250195933e-09
0, 9, 7, 3.184959185276171e-09
0, 9, 8, 1.089632029049881e-08
0, 9, 9, 1.322299769679347e-10
0, 9, 10, 1.805725347026055e-09
0, 9, 11, 7.800693979653772e-10
0, 9, 12, 7.855205375051355e-09
0, 9, 13, 9.860206873213428e-09
0, 9, 14, 6.667387975056727e-09
0, 9, 15, 6.357316895133636e-09
0, 9, 16, 6.552677955795616e-09
0, 9, 17, 4.042138623816527e-09
0, 9, 18, 1.596600363029665e-08
0, 9, 19, 1.124183857115213e-08
0, 9, 20, 1.364973023498806e-08
0, 9, 21, 5.413529624576086e-09
0, 9, 22, 1.809141503272826e-09
0, 9, 23, 1.372454683234992e-08
0, 9, 24, 5.671345615354539e-09
0, 9, 25, 8.106135207519571e-10
0, 9, 26, 5.071089326236233e-09
0, 9, 27, 3.729391906404089e-09
0, 9, 28, 9.761833119625862e-09
0, 9, 29, 3.52606033260372e-09
0, 9, 30, 4.27688329196485e-09
0, 9, 31, 7.304789662043731e-09
0, 9, 32, 8.375696580742442e-09
0, 9, 33, 9.521827770697655e-09
0, 9, 34, 1.008514605160826e-08
0, 9, 35, 5.526027191393723e-09
0, 9, 36, 5.553042470296532e-09
0, 9, 37, 7.774786148218027e-09
0, 9, 38, 2.507363028314558e-08
0, 9, 39, 1.423291351443368e-08
0, 9, 40, 2.921087330354233e-11
0, 9, 41, 7.70804753358334e-09
0, 9, 42, 1.701318552704834e-08
0, 9, 43, 1.164050722479715e-08
0, 9, 44, 9.793972743921131e-09
0, 9, 45, 2.815437216696637e-09
0, 9, 46, 1.490329815112545e-08
0, 9, 47, 5.549189996401083e-09
0, 9, 48, 5.483448362042509e-09
0, 9, 49, 1.131864024728202e-08
0, 10, 0, 1.83647301810197e-08
0, 10, 1, 9.102173237351963e-09
0, 10, 2, 1.263455895461618e-09
0, 10, 3, 7.142510582980321e-09
0, 10, 4, 4.437688883029978e-09
0, 10, 5, 9.773670761603626e-09
0, 10, 6, 7.25134730039656e-10
0, 10, 7, 3.245154811537532e-09
0, 10, 8, 7.41381978031086e-09
0, 10, 9, 2.068449855840981e-09
0, 10, 10, 6.376432271082422e-09
0, 10, 11, 1.066967958429643e-09
0, 10, 12, 1.631031487647761e-08
0, 10, 13, 7.315493544268747e-09
0, 10, 14, 9.59322310478683e-09
0, 10, 15, 7.42027417288682e-09
0, 10, 16, 6.100781657636389e-09
0, 10, 17, 6.49547216013957e-09
0, 10, 18, 1.443843000714651e-08
0, 10, 19, 6.71408662000772e-09
0, 10, 20, 4.776716799881342e-09
0, 10, 21, 6.497686388939883e-09
0, 10, 22, 1.091305268374754e-08
0, 10, 23, 8.699930553746071e-09
0, 10, 24, 6.745490388482267e-09
0, 10, 25, 1.708830965618802e-09
0, 10, 26, 1.804710869635073e-08
0, 10, 27, 2.31988970256225e-08
0, 10, 28, 3.759134514780271e-08
0, 10, 29, 3.369864032265468e-08
0, 10, 30, 7.072345820091641e-09
0, 10, 31, 1.368964408499096e-08
0, 10, 32, 2.200522652984205e-09
0, 10, 33, 7.44112682582454e-09
0, 10, 34, 6.156647192057108e-09
0, 10, 35, 9.220423535793998e-09
0, 10, 36, 2.718046454575074e-09
0, 10, 37, 1.382785619341576e-08
0, 10, 38, 2.087659467520098e-08
0, 10, 39, 8.532303752417647e-09
0, 10, 40, 1.529297399827101e-08
0, 10, 41, 6.402498531343781e-09
0, 10, 42, 1.188234222126994e-08
0, 10, 43, 8.548386887241577e-09
0, 10, 44, 1.473274746643938e-08
0, 10, 45, 1.837141461180636e-08
0, 10, 46, 1.942912319918833e-08
0, 10, 47, 6.07150940634682e-10
0, 10, 48, 7.125033452126672e-09
0, 10, 49, 1.153100104289706e-08
0, 11, 0, 0
0, 11, 1, 2.090273953925248e-09
0, 11, 2, 1.292754436832411e-08
0, 11, 3, 1.457202136734281e-09
0, 11, 4, 3.519387892225723e-09
0, 11, 5, 1.222660106492413e-08
0, 11, 6, 2.810715660217511e-09
0, 11, 7, 4.314549162387493e-09
0, 11, 8, 1.624315348891514e-09
0, 11, 9, 2.154536327125811e-09
0, 11, 10, 1.399951177205594e-08
0, 11, 11, 6.115243422755157e-09
0, 11, 12, 1.673172600469286e-09
0, 11, 13, 1.387155990073552e-08
0, 11, 14, 2.341116189796821e-09
0, 11, 15, 8.780016713672012e-09
0, 11, 16, 8.559050357348497e-09
0, 11, 17, 8.37780689266765e-09
0, 11, 18, 3.951205140850789e-09
0, 11, 19, 1.789418169195756e-09
0, 11, 20, 6.800426000097559e-09
0, 11, 21, 1.281542871822694e-08
0, 11, 22, 1.754317402458128e-08
0, 11, 23, 8.096318615535836e-10
0, 11, 24, 6.477238884139425e-12
0, 11, 25, 1.025770246521063e-09
0, 11, 26, 1.126542059637359e-08
0, 11, 27, 1.180769704234308e-08
0, 11, 28, 3.808416249029278e-09
0, 11, 29, 7.736831619808981e-09
0, 11, 30, 2.862495795952213e-09
0, 11, 31, 5.866591212821959e-09
0, 11, 32, 9.165864511828659e-09
0, 11, 33, 1.078283506927846e-08
0, 11, 34, 6.33855679055273e-09
0, 11, 35, 1.087011991529607e-08
0, 11, 36, 7.775144084121166e-09
0, 11, 37, 1.879865862974839e-08
0, 11, 38, 8.427655906473319e-09
0, 11, 39, 1.389837933629678e-08
0, 11, 40, 7.83632359002695e-09
0, 11, 41, 1.265446147868943e-08
0, 11, 42, 7.004007152033864e-09
0, 11, 43, 3.920933300260998e-10
0, 11, 44, 2.750543792728877e-08
0, 11, 45, 1.369812707707752e-09
0, 11, 46, 3.285393512797441e-09
0, 11, 47, 2.477381855214844e-08
0, 11, 48, 4.022694621852452e-09
0, 11, 49, 2.269467280768822e-09
0, 12, 0, 7.070033003486742e-09
0, 12, 1, 7.067318286146929e-09
0, 12, 2, 4.595411162711116e-09
0, 12, 3, 1.084913670013066e-08
0, 12, 4, 1.207368693911803e-08
0, 12, 5, 2.499557893997917e-08
0, 12, 6, 9.896215402704911e-09
0, 12, 7, 8.013955721253296e-09
0, 12, 8, 4.566735878341888e-09
0, 12, 9, 1.139954131090803e-09
0, 12, 10, 1.890267142812263e-08
0, 12, 11, 6.24638252233467e-09
0, 12, 12, 1.55305528437566e-08
0, 12, 13, 2.423873324275405e-09
0, 12, 14, 1.061521004430688e-08
0, 12, 15, 7.210038344140912e-09
0, 12, 16, 1.143164585215573e-08
0, 12, 17, 1.592216314350026e-08
0, 12, 18, 6.646916350661058e-10
0, 12, 19, 9.282143942357379e-09
0, 12, 20, 6.909869121329848e-09
0, 12, 21, 9.486916141554502e-09
0, 12, 22, 0
0, 12, 23, 1.751803857530376e-08
0, 12, 24, 7.299548521189081e-09
0, 12, 25, 6.758083870295195e-09
0, 12, 26, 1.35663116296314e-08
0, 12, 27, 5.734996477713139e-09
0, 12, 28, 9.429384384418427e-09
0, 12, 29, 6.210522318639278e-09
0, 12, 30, 1.312930120178635e-08
0, 12, 31, 1.027809570786076e-08
0, 12, 32, 7.181079730855799e-09
0, 12, 33, 2.550448030547159e-08
0, 12, 34, 8.992525835083143e-09
0, 12, 35, 5.135011971191261e-09
0, 12, 36, 4.862055202892179e-09
0, 12, 37, 3.242392798696869e-09
0, 12, 38, 5.500460087404235e-09
0, 12, 39, 1.262459559114859e-08
0, 12, 40, 2.651219688232231e-08
0, 12, 41, 7.047420869099597e-09
0, 12, 42, 1.285764383851529e-08
0, 12, 43, 1.339131561195472e-08
0, 12, 44, 9.126175370965939e-09
0, 12, 45, 1.594694332140989e-08
0, 12, 46, 1.142873440329595e-08
0, 12, 47, 9.026251968080601e-10
0, 12, 48, 1.722361631095737e-08
0, 12, 49, 9.059792027699132e-09
0, 13, 0, 5.360456079017695e-09
0, 13, 1, 1.057591614284092e-08
0, 13, 2, 8.306546561698269e-09
0, 13, 3, 1.175349595428088e-08
0, 13, 4, 8.335056200792224e-09
0, 13, 5, 1.116215653240715e-08
0, 13, 6, 4.413005516568091e-09
0, 13, 7, 3.251957383931803e-11
0, 13, 8, 3.989445218621768e-09
0, 13, 9, 3.410965732086879e-09
0, 13, 10, 1.337023114444946e-08
0, 13, 11, 1.493542711727969e-08
0, 13, 12, 8.265173434551798e-09
0, 13, 13, 8.953868757544114e-09
0, 13, 14, 7.862110074086104e-09
0, 13, 15, 8.162194475858087e-09
0, 13, 16, 0
0, 13, 17, 2.426864398330508e-08
0, 13, 18, 6.281849707079346e-09
0, 13, 19, 9.777409992750563e-09
0, 13, 20, 1.792167303449332e-08
0, 13, 21, 7.814566771457976e-09
0, 13, 22, 3.256644509619377e-09
0, 13, 23, 1.580500352815761e-08
0, 13, 24, 5.331524111085173e-10
0, 13, 25, 2.263395515456068e-08
0, 13, 26, 2.427814038696852e-08
0, 13, 27, 9.081944973843292e-09
0, 13, 28, 7.28213667144928e-09
0, 13, 29, 4.671218523100151e-09
0, 13, 30, 1.393637538704695e-09
0, 13, 31, 1.623735634836976e-08
0, 13, 32, 5.905157252072968e-09
0, 13, 33, 1.679859584768906e-09
0, 13, 34, 8.464284384501752e-09
0, 13, 35, 1.046549158445487e-08
0, 13, 36, 4.166420819462502e-10
0, 13, 37, 1.381885894602419e-08
0, 13, 38, 4.958614074901391e-10
0, 13, 39, 1.696458085120867e-08
0, 13, 40, 2.285973188520529e-08
0, 13, 41, 2.416579469866065e-08
0, 13, 42, 2.587471747972359e-08
0, 13, 43, 0
0, 13, 44, 1.272026661780501e-08
0, 13, 45, 9.777516574160927e-09
0, 13, 46, 1.753194744935627e-08
0, 13, 47, 1.720640163682674e-08
0, 13, 48, 4.88281459709583e-09
0, 13, 49, 5.685626192075688e-09
0, 14, 0, 1.432389051814198e-08
0, 14, 1, 4.862135583039162e-09
0, 14, 2, 4.598573966063668e-09
0, 14, 3, 1.151111028718788e-08
0, 14, 4, 7.251026001853234e-09
0, 14, 5, 4.692994881594359e-09
0, 14, 6, 3.109521085065126e-09
0, 14, 7, 5.954146509168368e-09
0, 14, 8, 1.853716402600014e-09
0, 14, 9, 1.060614618353384e-08
0, 14, 10, 1.047143349808266e-08
0, 14, 11, 6.711767586153883e-09
0, 14, 12, 1.72783778396024e-08
0, 14, 13, 8.510324889243748e-09
0, 14, 14, 9.210656237712556e-09
0, 14, 15, 8.042107424444112e-09
0, 14, 16, 1.215570533119603e-09
0, 14, 17, 4.46084369443156e-09
0, 14, 18, 1.363482304839181e-08
0, 14, 19, 5.430000449280215e-09
0, 14, 20, 2.591149295128048e-09
0, 14, 21, 7.802627877140367e-09
0, 14, 22, 5.441935790884145e-09
0, 14, 23, 1.635725865867244e-08
0, 14, 24, 3.093228073680621e-08
0, 14, 25, 1.252290005027135e-08
0, 14, 26, 9.20137388504827e-09
0, 14, 27, 9.550051416340466e-09
0, 14, 28, 1.644918867782508e-08
0, 14, 29, 6.542419939137289e-09
0, 14, 30, 8.513174609703356e-10
0, 14, 31, 1.92646432140009e-08
0, 14, 32, 5.785465884144969e-09
0, 14, 33, 1.70837690660619e-08
0, 14, 34, 1.038630337291124e-08
0, 14, 35, 1.387574144473547e-08
0, 14, 36, 4.634280958981662e-09
0, 14, 37, 9.790054100733414e-09
0, 14, 38, 3.988084085193577e-09
0, 14, 39, 1.094512214194765e-08
0, 14, 40, 4.272112885672641e-09
0, 14, 41, 7.781279620644455e-09
0, 14, 42, 2.166869350617162e-08
0, 14, 43, 3.141116922122933e-09
0, 14, 44, 1.234378110837042e-08
0, 14, 45, 5.685306003755386e-09
0, 14, 46, 1.208508670913488e-08
0, 14, 47, 1.140281979949975e-09
0, 14, 48, 8.798831885314939e-09
0, 14, 49, 8.928204286995367e-10
0, 15, 0, 5.113090395525433e-09
0, 15, 1, 5.178200979116809e-09
0, 15, 2, 5.465990771114093e-09
0, 15, 3, 7.568466742213786e-09
0, 15, 4, 1.704051122430883e-08
0, 15, 5, 1.226682577737392e-08
0, 15, 6, 6.310631128769728e-09
0, 15, 7, 4.952650733969222e-09
0, 15, 8, 1.151592043946437e-09
0, 15, 9, 1.661250337292586e-08
0, 15, 10, 9.146539525772823e-09
0, 15, 11, 1.736498411730736e-08
0, 15, 12, 9.6727470477731e-09
0, 15, 13, 1.290815010435153e-08
0, 15, 14, 5.82193959708377e-10
0, 15, 15, 2.764576567670929e-09
0, 15, 16, 5.860296248272334e-09
0, 15, 17, 2.595710535402418e-09
0, 15, 18, 2.23713723102037e-08
0, 15, 19, 2.530433462766268e-08
0, 15, 20, 1.473164346066369e-08
0, 15, 21, 4.445801948804728e-09
0, 15, 22, 1.469078725335748e-08
0, 15, 23, 6.777009176062165e-09
0, 15, 24, 9.985114957089536e-09
0, 15, 25, 9.0486320658556e-09
0, 15, 26, 1.068199129150571e-08
0, 15, 27, 1.660833248706695e-08
0, 15, 28, 3.392689906789315e-09
0, 15, 29, 1.066266630544987e-08
0, 15, 30, 1.216989975461047e-08
0, 15, 31, 8.297318387917585e-09
0, 15, 32, 1.20435190709145e-08
0, 15, 33, 2.70730886597903e-08
0, 15, 34, 1.317568543157677e-08
0, 15, 35, 3.066389808736858e-09
0, 15, 36, 1.96002645225235e-08
0, 15, 37, 1.851021558252341e-08
0, 15, 38, 1.751110723091642e-08
0, 15, 39, 2.358344630692955e-08
0, 15, 40, 1.064290611196839e-08
0, 15, 41, 2.588751968346514e-08
0, 15, 42, 8.612138557850813e-09
0, 15, 43, 4.948472742682952e-09
0, 15, 44, 3.790258329416929e-09
0, 15, 45, 1.41308964529685e-08
0, 15, 46, 4.584738810819999e-09
0, 15, 47, 6.051086298697328e-09
0, 15, 48, 1.875576671750423e-08
0, 15, 49, 9.299539804885626e-09
0, 16, 0, 7.504572074878979e-09
0, 16, 1, 7.773038213088057e-09
0, 16, 2, 4.555552379770234e-09
0, 16, 3, 5.705186101323534e-09
0, 16, 4, 1.614239764080594e-08
0, 16, 5, 6.361588589243183e-09
0, 16, 6, 1.101193269903433e-08
0, 16, 7, 8.61892957004784e-09
0, 16, 8, 1.499082102895954e-08
0, 16, 9, 4.118461127688988e-09
0, 16, 10, 1.714544284325825e-09
0, 16, 11, 1.618854206242304e-08
0, 16, 12, 5.652708967573972e-09
0, 16, 13, 4.720984714268184e-10
0, 16, 14, 1.233341606621252e-08
0, 16, 15, 6.112884420872433e-09
0, 16, 16, 1.317848852266934e-08
0, 16, 17, 2.363084128376158e-08
0, 16, 18, 3.444069696101337e-09
0, 16, 19, 1.849205233384055e-08
0, 16, 20, 1.289124540448938e-08
0, 16, 21, 1.871503485517678e-08
0, 16, 22, 1.744339428455532e-08
0, 16, 23, 1.241026570397707e-08
0, 16, 24, 1.139881433687151e-08
0, 16, 25, 4.36319114172079e-09
0, 16, 26, 2.39187993855694e-08
0, 16, 27, 8.275373275523634e-09
0, 16, 28, 3.93760535288834e-09
0, 16, 29, 1.930292592433602e-09
0, 16, 30, 1.041417974079195e-08
0, 16, 31, 9.101592368665479e-09
0, 16, 32, 1.945972627481751e-08
0, 16, 33, 7.261725443186151e-09
0, 16, 34, 9.323700034258309e-09
0, 16, 35, 6.240561845061166e-09
0, 16, 36, 6.238263239310982e-09
0, 16, 37, 1.1903589225426e-08
0, 16, 38, 1.099241142554774e-08
0, 16, 39, 9.248227073044291e-09
0, 16, 40, 2.535937859704518e-08
0, 16, 41, 7.848209193639377e-09
0, 16, 42, 8.123437922336052e-09
0, 16, 43, 1.051883913305574e-08
0, 16, 44, 1.188949738661904e-08
0, 16, 45, 8.138404616886419e-09
0, 16, 46, 2.555929690117864e-08
0, 16, 47, 2.778836050154609e-09
0, 16, 48, 3.114801083725638e-09
0, 16, 49, 2.091260853376298e-08
0, 17, 0, 9.932128897105486e-09
0, 17, 1, 1.054740117467645e-08
0, 17, 2, 3.10177794560218e-09
0, 17, 3, 1.277240180286299e-08
0, 17, 4, 3.584046837090682e-09
0, 17, 5, 6.281686726339331e-09
0, 17, 6, 3.517614199921582e-09
0, 17, 7, 3.291237060665253e-09
0, 17, 8, 3.635451106820398e-10
0, 17, 9, 8.372185611449368e-09
0, 17, 10, 1.181491082746788e-08
0, 17, 11, 8.849084132123153e-09
0, 17, 12, 2.581339941798433e-08
0, 17, 13, 7.908290133862295e-10
0, 17, 14, 1.493936174767896e-08
0, 17, 15, 4.119431462612511e-09
0, 17, 16, 1.363048873770367e-08
0, 17, 17, 2.662493692184853e-08
0, 17, 18, 1.030101604015954e-08
0, 17, 19, 1.155434947719414e-08
0, 17, 20, 2.404650878418124e-08
0, 17, 21, 5.276921566377268e-09
0, 17, 22, 1.074436628556441e-08
0, 17, 23, 7.083628350557092e-09
0, 17, 24, 2.639389595771036e-09
0, 17, 25, 4.694315602904453e-09
0, 17, 26, 6.236570815332243e-09
0, 17, 27, 3.817467675304442e-09
0, 17, 28, 8.903860759801319e-09
0, 17, 29, 4.048590795946438e-09
0, 17, 30, 6.913767780503122e-09
0, 17, 31, 2.312561520056988e-08
0, 17, 32, 9.206234885539288e-09
0, 17, 33, 1.699672225186077e-08
0, 17, 34, 4.37459402036211e-09
0, 17, 35, 1.243315672638801e-08
0, 17, 36, 6.684877096319042e-09
0, 17, 37, 1.086125855920272e-08
0, 17, 38, 1.725005382979816e-08
0, 17, 39, 1.535059013235696e-08
0, 17, 40, 6.474667912925725e-09
0, 17, 41, 7.150656511356601e-09
0, 17, 42, 2.370007479157721e-08
0, 17, 43, 1.355316125994932e-08
0, 17, 44, 4.689040267180644e-09
0, 17, 45, 9.910414711100657e-09
0, 17, 46, 6.239871286339849e-09
0, 17, 47, 2.48146498904589e-08
0, 17, 48, 2.848026037227669e-09
0, 17, 49, 9.557841629259656e-09
0, 18, 0, 6.092022442061307e-09
0, 18, 1, 1.395936521930707e-08
0, 18, 2, 8.397105233370894e-09
0, 18, 3, 1.888413514450349e-08
0, 18, 4, 1.878039412872567e-08
0, 18, 5, 2.009688770954199e-08
0, 18, 6, 1.16783720471858e-08
0, 18, 7, 8.994314626420419e-09
0, 18, 8, 7.750376340709408e-09
0, 18, 9, 1.140473049332513e-08
0, 18, 10, 1.413023476004582e-09
0, 18, 11, 2.128162002179579e-08
0, 18, 12, 8.611589663587438e-09
0, 18, 13, 1.029904073135413e-08
0, 18, 14, 1.046268227611336e-08
0, 18, 15, 9.069546003104278e-09
0, 18, 16, 8.877790058647861e-09
0, 18, 17, 1.807659621988478e-08
0, 18, 18, 7.77160913401076e-09
0, 18, 19, 1.616992229003245e-08
0, 18, 20, 1.19059828662671e-08
0, 18, 21, 6.450057821183464e-09
0, 18, 22, 1.509052971471192e-08
0, 18, 23, 1.226479895422017e-08
0, 18, 24, 1.867892862605913e-08
0, 18, 25, 8.574147614126559e-09
0, 18, 26, 3.96568555771637e-09
0, 18, 27, 1.522654891061848e-08
0, 18, 28, 1.366345792064294e-08
0, 18, 29, 6.312457223600632e-09
0, 18, 30, 1.577403452301951e-08
0, 18, 31, 1.496824530988761e-08
0, 18, 32, 3.264237991018604e-09
0, 18, 33, 1.591830667280192e-08
0, 18, 34, 1.046585573760694e-08
0, 18, 35, 1.255302795044599e-08
0, 18, 36, 8.306982657302342e-09
0, 18, 37, 2.638302376567481e-08
0, 18, 38, 1.96723597412074e-08
0, 18, 39, 1.192392495852346e-08
0, 18, 40, 1.897570633957457e-08
0, 18, 41, 8.64739124750713e-09
0, 18, 42, 7.855438077797317e-09
0, 18, 43, 1.751963907281606e-08
0, 18, 44, 4.072432613355659e-09
0, 18, 45, 8.377071480936138e-09
0, 18, 46, 1.395203774734455e-08
0, 18, 47, 1.591956011459672e-09
0, 18, 48, 1.976669139480691e-08
