# TOPAS Version: 3.7
# Parameter File: TestingDose1.txt
# Results for scorer TestingDose1Fluence
# Scored in component: Phantom
# X in 50 bins of 0.1 cm
# Y in 50 bins of 0.1 cm
# Z in 50 bins of 0.1 cm
# EnergyFluence ( MeV/mm2 ) : Sum   
0, 0, 0, 20.25279235839844
0, 0, 1, 20.83540344238281
0, 0, 2, 22.57900047302246
0, 0, 3, 21.78909492492676
0, 0, 4, 23.60121536254883
0, 0, 5, 22.92734146118164
0, 0, 6, 21.10874176025391
0, 0, 7, 23.56523513793945
0, 0, 8, 26.20682716369629
0, 0, 9, 24.01274108886719
0, 0, 10, 22.27388763427734
0, 0, 11, 24.32447624206543
0, 0, 12, 25.63150215148926
0, 0, 13, 24.28925323486328
0, 0, 14, 26.70494842529297
0, 0, 15, 25.58479499816895
0, 0, 16, 23.52936363220215
0, 0, 17, 21.40139198303223
0, 0, 18, 21.5861701965332
0, 0, 19, 23.59600067138672
0, 0, 20, 25.82996368408203
0, 0, 21, 23.10615921020508
0, 0, 22, 24.54848480224609
0, 0, 23, 23.60760116577148
0, 0, 24, 23.19512748718262
0, 0, 25, 23.07425117492676
0, 0, 26, 24.1119213104248
0, 0, 27, 22.99445724487305
0, 0, 28, 23.2138843536377
0, 0, 29, 21.81533813476562
0, 0, 30, 24.34548950195312
0, 0, 31, 22.59366226196289
0, 0, 32, 24.65357208251953
0, 0, 33, 22.12631607055664
0, 0, 34, 20.76371002197266
0, 0, 35, 20.73892784118652
0, 0, 36, 22.34752464294434
0, 0, 37, 21.83212471008301
0, 0, 38, 21.25011253356934
0, 0, 39, 20.28014183044434
0, 0, 40, 20.83757400512695
0, 0, 41, 19.23388481140137
0, 0, 42, 19.70198631286621
0, 0, 43, 18.42232322692871
0, 0, 44, 18.09246444702148
0, 0, 45, 16.98909950256348
0, 0, 46, 19.38309478759766
0, 0, 47, 16.63963508605957
0, 0, 48, 15.8457088470459
0, 0, 49, 18.11757850646973
0, 1, 0, 23.47648048400879
0, 1, 1, 22.82199478149414
0, 1, 2, 23.64101982116699
0, 1, 3, 23.65936470031738
0, 1, 4, 23.64021873474121
0, 1, 5, 25.78966331481934
0, 1, 6, 26.48312950134277
0, 1, 7, 24.38592529296875
0, 1, 8, 26.53305625915527
0, 1, 9, 24.5510139465332
0, 1, 10, 26.43551635742188
0, 1, 11, 27.05387687683105
0, 1, 12, 25.15746116638184
0, 1, 13, 26.87179756164551
0, 1, 14, 27.36912155151367
0, 1, 15, 25.33865356445312
0, 1, 16, 25.36629486083984
0, 1, 17, 25.95407867431641
0, 1, 18, 26.8944034576416
0, 1, 19, 23.71438026428223
0, 1, 20, 28.60658073425293
0, 1, 21, 27.28063201904297
0, 1, 22, 25.12427139282227
0, 1, 23, 24.85663986206055
0, 1, 24, 25.82925033569336
0, 1, 25, 24.80419158935547
0, 1, 26, 23.65066337585449
0, 1, 27, 24.58171844482422
0, 1, 28, 26.64402770996094
0, 1, 29, 25.65562057495117
0, 1, 30, 27.02998542785645
0, 1, 31, 24.75201606750488
0, 1, 32, 26.16308403015137
0, 1, 33, 23.08606147766113
0, 1, 34, 24.0447940826416
0, 1, 35, 22.61674690246582
0, 1, 36, 21.80653762817383
0, 1, 37, 22.24300384521484
0, 1, 38, 21.6838264465332
0, 1, 39, 22.7139835357666
0, 1, 40, 19.77482604980469
0, 1, 41, 20.53644180297852
0, 1, 42, 19.86484336853027
0, 1, 43, 21.02637672424316
0, 1, 44, 17.66999053955078
0, 1, 45, 19.03703880310059
0, 1, 46, 18.39140892028809
0, 1, 47, 19.02216529846191
0, 1, 48, 15.14283752441406
0, 1, 49, 17.46415138244629
0, 2, 0, 23.64478492736816
0, 2, 1, 24.69291687011719
0, 2, 2, 24.16717910766602
0, 2, 3, 22.58213806152344
0, 2, 4, 26.13788032531738
0, 2, 5, 24.99270439147949
0, 2, 6, 23.91781425476074
0, 2, 7, 27.48980522155762
0, 2, 8, 24.14811515808105
0, 2, 9, 27.80077934265137
0, 2, 10, 28.11120796203613
0, 2, 11, 26.12723731994629
0, 2, 12, 26.1470775604248
0, 2, 13, 25.12386131286621
0, 2, 14, 26.98166656494141
0, 2, 15, 28.69088745117188
0, 2, 16, 28.02956199645996
0, 2, 17, 29.22322082519531
0, 2, 18, 30.10944747924805
0, 2, 19, 27.02030372619629
0, 2, 20, 28.48283195495605
0, 2, 21, 27.45292091369629
0, 2, 22, 27.12807464599609
0, 2, 23, 25.9354248046875
0, 2, 24, 25.95387077331543
0, 2, 25, 26.19052505493164
0, 2, 26, 24.82393074035645
0, 2, 27, 23.96054840087891
0, 2, 28, 25.48208999633789
0, 2, 29, 24.94151878356934
0, 2, 30, 26.87863922119141
0, 2, 31, 24.08815765380859
0, 2, 32, 25.24176597595215
0, 2, 33, 25.00592613220215
0, 2, 34, 24.73789405822754
0, 2, 35, 25.28668975830078
0, 2, 36, 22.242431640625
0, 2, 37, 23.30123519897461
0, 2, 38, 21.65567016601562
0, 2, 39, 23.82986450195312
0, 2, 40, 20.16273880004883
0, 2, 41, 22.75087356567383
0, 2, 42, 21.44283103942871
0, 2, 43, 23.02299118041992
0, 2, 44, 20.93142890930176
0, 2, 45, 20.59248542785645
0, 2, 46, 18.38752746582031
0, 2, 47, 18.05208778381348
0, 2, 48, 19.60812759399414
0, 2, 49, 15.01592636108398
0, 3, 0, 24.80451965332031
0, 3, 1, 24.61367034912109
0, 3, 2, 25.66082000732422
0, 3, 3, 26.44237327575684
0, 3, 4, 27.50612258911133
0, 3, 5, 26.27667236328125
0, 3, 6, 25.29263687133789
0, 3, 7, 27.36901473999023
0, 3, 8, 29.06665992736816
0, 3, 9, 27.77668190002441
0, 3, 10, 27.49085426330566
0, 3, 11, 29.95597267150879
0, 3, 12, 29.02707481384277
0, 3, 13, 25.86104011535645
0, 3, 14, 29.83461761474609
0, 3, 15, 30.63201141357422
0, 3, 16, 31.91104316711426
0, 3, 17, 28.15802192687988
0, 3, 18, 31.14523124694824
0, 3, 19, 29.82579040527344
0, 3, 20, 29.02834510803223
0, 3, 21, 28.70486640930176
0, 3, 22, 31.72104072570801
0, 3, 23, 28.65517997741699
0, 3, 24, 29.71052360534668
0, 3, 25, 30.59282684326172
0, 3, 26, 31.97013092041016
0, 3, 27, 27.93596649169922
0, 3, 28, 27.50559997558594
0, 3, 29, 28.07588386535645
0, 3, 30, 25.95823860168457
0, 3, 31, 24.07736015319824
0, 3, 32, 25.39460182189941
0, 3, 33, 27.47171211242676
0, 3, 34, 26.9334545135498
0, 3, 35, 27.80171012878418
0, 3, 36, 25.4859790802002
0, 3, 37, 23.8677806854248
0, 3, 38, 26.74764251708984
0, 3, 39, 25.4191780090332
0, 3, 40, 24.1860523223877
0, 3, 41, 23.55549240112305
0, 3, 42, 24.36887741088867
0, 3, 43, 23.52901268005371
0, 3, 44, 21.2113094329834
0, 3, 45, 19.90006065368652
0, 3, 46, 20.82959175109863
0, 3, 47, 20.73682022094727
0, 3, 48, 20.61653709411621
0, 3, 49, 17.70887756347656
0, 4, 0, 24.63051986694336
0, 4, 1, 23.89737319946289
0, 4, 2, 26.369140625
0, 4, 3, 29.59753227233887
0, 4, 4, 25.03422927856445
0, 4, 5, 24.97856712341309
0, 4, 6, 27.84794235229492
0, 4, 7, 27.95720481872559
0, 4, 8, 26.42940711975098
0, 4, 9, 29.06622314453125
0, 4, 10, 29.22293090820312
0, 4, 11, 31.73065567016602
0, 4, 12, 32.22628784179688
0, 4, 13, 31.841064453125
0, 4, 14, 30.82648849487305
0, 4, 15, 29.21994590759277
0, 4, 16, 31.01852607727051
0, 4, 17, 29.14019203186035
0, 4, 18, 32.5987663269043
0, 4, 19, 30.71075057983398
0, 4, 20, 33.76293563842773
0, 4, 21, 31.71229934692383
0, 4, 22, 32.69987106323242
0, 4, 23, 32.1899528503418
0, 4, 24, 29.81964111328125
0, 4, 25, 30.5607738494873
0, 4, 26, 32.24066162109375
0, 4, 27, 29.24740409851074
0, 4, 28, 27.13096809387207
0, 4, 29, 29.81967926025391
0, 4, 30, 25.69419097900391
0, 4, 31, 26.77595520019531
0, 4, 32, 25.82858085632324
0, 4, 33, 29.13996696472168
0, 4, 34, 27.17880249023438
0, 4, 35, 25.90518951416016
0, 4, 36, 28.51065826416016
0, 4, 37, 28.58501815795898
0, 4, 38, 26.36748313903809
0, 4, 39, 24.2174129486084
0, 4, 40, 23.87346267700195
0, 4, 41, 22.75965309143066
0, 4, 42, 24.21622848510742
0, 4, 43, 23.96529579162598
0, 4, 44, 22.65882110595703
0, 4, 45, 20.94480514526367
0, 4, 46, 21.7075080871582
0, 4, 47, 17.96984100341797
0, 4, 48, 21.53749465942383
0, 4, 49, 17.55045700073242
0, 5, 0, 27.76878356933594
0, 5, 1, 25.89624404907227
0, 5, 2, 25.61436080932617
0, 5, 3, 28.60476112365723
0, 5, 4, 27.90828323364258
0, 5, 5, 27.82885932922363
0, 5, 6, 28.64809989929199
0, 5, 7, 28.53119659423828
0, 5, 8, 29.34790992736816
0, 5, 9, 31.25575828552246
0, 5, 10, 31.07019233703613
0, 5, 11, 35.17807006835938
0, 5, 12, 37.22599411010742
0, 5, 13, 31.87955093383789
0, 5, 14, 32.32095718383789
0, 5, 15, 32.20246124267578
0, 5, 16, 31.96286582946777
0, 5, 17, 34.23439407348633
0, 5, 18, 34.11081314086914
0, 5, 19, 34.46225357055664
0, 5, 20, 32.07952499389648
0, 5, 21, 35.35004043579102
0, 5, 22, 31.5651798248291
0, 5, 23, 33.0784797668457
0, 5, 24, 31.62106323242188
0, 5, 25, 30.19094467163086
0, 5, 26, 28.62492370605469
0, 5, 27, 33.00382232666016
0, 5, 28, 29.50970649719238
0, 5, 29, 31.58740997314453
0, 5, 30, 27.91782379150391
0, 5, 31, 30.65070724487305
0, 5, 32, 30.08272171020508
0, 5, 33, 30.74135971069336
0, 5, 34, 28.70869064331055
0, 5, 35, 26.45943450927734
0, 5, 36, 27.62225914001465
0, 5, 37, 30.57856178283691
0, 5, 38, 26.06132316589355
0, 5, 39, 23.96589088439941
0, 5, 40, 24.15069770812988
0, 5, 41, 22.71917724609375
0, 5, 42, 23.6414794921875
0, 5, 43, 24.49099349975586
0, 5, 44, 21.09226226806641
0, 5, 45, 22.84898948669434
0, 5, 46, 21.25068473815918
0, 5, 47, 21.47975730895996
0, 5, 48, 19.49802589416504
0, 5, 49, 16.97675514221191
0, 6, 0, 28.95036697387695
0, 6, 1, 24.38529396057129
0, 6, 2, 23.84595108032227
0, 6, 3, 27.86928176879883
0, 6, 4, 31.03536987304688
0, 6, 5, 29.59918022155762
0, 6, 6, 30.91214752197266
0, 6, 7, 30.06104469299316
0, 6, 8, 32.7718505859375
0, 6, 9, 31.71364212036133
0, 6, 10, 32.23118209838867
0, 6, 11, 34.9202995300293
0, 6, 12, 31.03009223937988
0, 6, 13, 30.69773292541504
0, 6, 14, 33.26224136352539
0, 6, 15, 30.36750411987305
0, 6, 16, 37.70513916015625
0, 6, 17, 33.80425262451172
0, 6, 18, 34.73060989379883
0, 6, 19, 33.58480834960938
0, 6, 20, 35.00296020507812
0, 6, 21, 34.72446060180664
0, 6, 22, 29.0919246673584
0, 6, 23, 34.15780258178711
0, 6, 24, 28.79723930358887
0, 6, 25, 32.07331848144531
0, 6, 26, 31.52697563171387
0, 6, 27, 33.29230117797852
0, 6, 28, 31.69868278503418
0, 6, 29, 34.12544631958008
0, 6, 30, 32.68896102905273
0, 6, 31, 32.14220809936523
0, 6, 32, 28.8740291595459
0, 6, 33, 27.87263679504395
0, 6, 34, 29.15230178833008
0, 6, 35, 31.3123664855957
0, 6, 36, 29.44078254699707
0, 6, 37, 30.07493782043457
0, 6, 38, 27.08273124694824
0, 6, 39, 27.30979156494141
0, 6, 40, 25.29556083679199
0, 6, 41, 26.1431884765625
0, 6, 42, 26.20801162719727
0, 6, 43, 22.68819427490234
0, 6, 44, 25.17557334899902
0, 6, 45, 24.1240062713623
0, 6, 46, 22.64150810241699
0, 6, 47, 23.07742881774902
0, 6, 48, 23.60646057128906
0, 6, 49, 20.30544471740723
0, 7, 0, 29.87467575073242
0, 7, 1, 28.8804874420166
0, 7, 2, 32.18255615234375
0, 7, 3, 31.27374267578125
0, 7, 4, 31.28687477111816
0, 7, 5, 30.40911102294922
0, 7, 6, 30.04757308959961
0, 7, 7, 32.19738006591797
0, 7, 8, 33.76995849609375
0, 7, 9, 34.50345230102539
0, 7, 10, 34.98904037475586
0, 7, 11, 35.30255126953125
0, 7, 12, 35.0672492980957
0, 7, 13, 32.90732955932617
0, 7, 14, 35.60545349121094
0, 7, 15, 33.9913215637207
0, 7, 16, 33.97181701660156
0, 7, 17, 36.00033187866211
0, 7, 18, 36.2259521484375
0, 7, 19, 36.20505523681641
0, 7, 20, 34.44948196411133
0, 7, 21, 37.94440841674805
0, 7, 22, 32.97511672973633
0, 7, 23, 32.62334442138672
0, 7, 24, 31.80758857727051
0, 7, 25, 34.02785873413086
0, 7, 26, 33.643798828125
0, 7, 27, 32.42643737792969
0, 7, 28, 31.35254859924316
0, 7, 29, 34.47288131713867
0, 7, 30, 33.20309448242188
0, 7, 31, 32.41835021972656
0, 7, 32, 31.60680198669434
0, 7, 33, 31.3043270111084
0, 7, 34, 31.13042831420898
0, 7, 35, 31.15341758728027
0, 7, 36, 27.03332710266113
0, 7, 37, 29.5439567565918
0, 7, 38, 26.53471755981445
0, 7, 39, 26.40620040893555
0, 7, 40, 27.80421257019043
0, 7, 41, 29.49580764770508
0, 7, 42, 25.86095237731934
0, 7, 43, 26.94352722167969
0, 7, 44, 23.05730247497559
0, 7, 45, 24.07508277893066
0, 7, 46, 22.86983680725098
0, 7, 47, 25.61788940429688
0, 7, 48, 22.28507232666016
0, 7, 49, 22.40452003479004
0, 8, 0, 29.46121597290039
0, 8, 1, 31.88426208496094
0, 8, 2, 34.30081558227539
0, 8, 3, 33.30584716796875
0, 8, 4, 30.785400390625
0, 8, 5, 32.57115173339844
0, 8, 6, 30.01641654968262
0, 8, 7, 29.69294929504395
0, 8, 8, 33.02251052856445
0, 8, 9, 37.51301956176758
0, 8, 10, 32.38158798217773
0, 8, 11, 34.83073043823242
0, 8, 12, 35.86222839355469
0, 8, 13, 38.18405532836914
0, 8, 14, 37.85486221313477
0, 8, 15, 37.61274337768555
0, 8, 16, 38.26441192626953
0, 8, 17, 35.93162155151367
0, 8, 18, 37.5577278137207
0, 8, 19, 39.9652214050293
0, 8, 20, 41.58745956420898
0, 8, 21, 35.26484298706055
0, 8, 22, 37.41646575927734
0, 8, 23, 36.90083312988281
0, 8, 24, 34.14450073242188
0, 8, 25, 34.37022399902344
0, 8, 26, 36.6161994934082
0, 8, 27, 37.31561279296875
0, 8, 28, 36.83328628540039
0, 8, 29, 36.22194671630859
0, 8, 30, 32.79033660888672
0, 8, 31, 32.7315673828125
0, 8, 32, 33.88648986816406
0, 8, 33, 32.2118034362793
0, 8, 34, 31.29587554931641
0, 8, 35, 30.63069343566895
0, 8, 36, 27.97548294067383
0, 8, 37, 32.45466232299805
0, 8, 38, 27.23122596740723
0, 8, 39, 29.94618606567383
0, 8, 40, 28.1468391418457
0, 8, 41, 30.86493682861328
0, 8, 42, 24.44704246520996
0, 8, 43, 26.87192535400391
0, 8, 44, 26.24375343322754
0, 8, 45, 27.15259742736816
0, 8, 46, 24.05297470092773
0, 8, 47, 23.98501396179199
0, 8, 48, 22.02984809875488
0, 8, 49, 22.24563217163086
0, 9, 0, 30.23689460754395
0, 9, 1, 33.44622421264648
0, 9, 2, 33.4388427734375
0, 9, 3, 30.10221672058105
0, 9, 4, 35.45301818847656
0, 9, 5, 35.77859878540039
0, 9, 6, 33.98141098022461
0, 9, 7, 36.53145217895508
0, 9, 8, 35.31171035766602
0, 9, 9, 36.05576705932617
0, 9, 10, 36.65576934814453
0, 9, 11, 33.57780456542969
0, 9, 12, 35.33468627929688
0, 9, 13, 37.26255798339844
0, 9, 14, 35.72849273681641
0, 9, 15, 35.68040084838867
0, 9, 16, 37.07351303100586
0, 9, 17, 39.62199783325195
0, 9, 18, 35.93398284912109
0, 9, 19, 37.05122375488281
0, 9, 20, 36.71885681152344
0, 9, 21, 36.39365386962891
0, 9, 22, 38.2777214050293
0, 9, 23, 37.01553344726562
0, 9, 24, 35.78044891357422
0, 9, 25, 34.01859664916992
0, 9, 26, 35.73897552490234
0, 9, 27, 36.98192977905273
0, 9, 28, 35.92198944091797
0, 9, 29, 34.67507553100586
0, 9, 30, 36.99206161499023
0, 9, 31, 35.09151840209961
0, 9, 32, 36.04285430908203
0, 9, 33, 35.00134658813477
0, 9, 34, 31.72426414489746
0, 9, 35, 32.81190872192383
0, 9, 36, 32.32169723510742
0, 9, 37, 32.2669677734375
0, 9, 38, 33.30030059814453
0, 9, 39, 30.05002212524414
0, 9, 40, 26.53151702880859
0, 9, 41, 27.68347549438477
0, 9, 42, 27.0351390838623
0, 9, 43, 27.90531921386719
0, 9, 44, 28.78144454956055
0, 9, 45, 26.65252304077148
0, 9, 46, 27.44334602355957
0, 9, 47, 23.54855918884277
0, 9, 48, 24.0816593170166
0, 9, 49, 21.40475845336914
0, 10, 0, 31.73347282409668
0, 10, 1, 32.94871139526367
0, 10, 2, 31.42562484741211
0, 10, 3, 31.69195175170898
0, 10, 4, 35.71283340454102
0, 10, 5, 36.36466979980469
0, 10, 6, 38.28891372680664
0, 10, 7, 31.99803733825684
0, 10, 8, 37.21345901489258
0, 10, 9, 37.37759017944336
0, 10, 10, 41.21562957763672
0, 10, 11, 38.09071350097656
0, 10, 12, 37.99201202392578
0, 10, 13, 39.58290481567383
0, 10, 14, 39.13653182983398
0, 10, 15, 35.74728393554688
0, 10, 16, 39.494140625
0, 10, 17, 39.65446090698242
0, 10, 18, 38.34287261962891
0, 10, 19, 40.57631301879883
0, 10, 20, 38.55465316772461
0, 10, 21, 40.48441696166992
0, 10, 22, 39.99776458740234
0, 10, 23, 41.41274261474609
0, 10, 24, 38.64192199707031
0, 10, 25, 38.57377243041992
0, 10, 26, 37.48175811767578
0, 10, 27, 37.50548553466797
0, 10, 28, 36.98071670532227
0, 10, 29, 37.36542892456055
0, 10, 30, 35.97893524169922
0, 10, 31, 36.43285751342773
0, 10, 32, 37.01450729370117
0, 10, 33, 37.80336380004883
0, 10, 34, 37.58914184570312
0, 10, 35, 36.46413421630859
0, 10, 36, 33.02963256835938
0, 10, 37, 37.06335830688477
0, 10, 38, 33.15817642211914
0, 10, 39, 31.59240341186523
0, 10, 40, 30.72975730895996
0, 10, 41, 31.38852310180664
0, 10, 42, 30.58866310119629
0, 10, 43, 26.82209968566895
0, 10, 44, 26.43114280700684
0, 10, 45, 25.41217994689941
0, 10, 46, 24.77243614196777
0, 10, 47, 26.70873832702637
0, 10, 48, 27.02206993103027
0, 10, 49, 23.83589935302734
0, 11, 0, 31.68791198730469
0, 11, 1, 33.48322677612305
0, 11, 2, 36.81552124023438
0, 11, 3, 32.11019134521484
0, 11, 4, 33.55275726318359
0, 11, 5, 35.86852645874023
0, 11, 6, 33.76556015014648
0, 11, 7, 38.54545974731445
0, 11, 8, 40.49696350097656
0, 11, 9, 38.93850326538086
0, 11, 10, 41.59432983398438
0, 11, 11, 40.13713073730469
0, 11, 12, 39.75505828857422
0, 11, 13, 42.85852813720703
0, 11, 14, 39.50760650634766
0, 11, 15, 42.70687484741211
0, 11, 16, 42.03086090087891
0, 11, 17, 41.26449584960938
0, 11, 18, 40.65068435668945
0, 11, 19, 43.25906753540039
0, 11, 20, 45.16153717041016
0, 11, 21, 42.62334442138672
0, 11, 22, 40.21804809570312
0, 11, 23, 42.26051712036133
0, 11, 24, 39.3493537902832
0, 11, 25, 40.71343231201172
0, 11, 26, 40.65901947021484
0, 11, 27, 38.5136833190918
0, 11, 28, 37.31279373168945
0, 11, 29, 40.17525482177734
0, 11, 30, 39.05114364624023
0, 11, 31, 40.42742156982422
0, 11, 32, 35.79886627197266
0, 11, 33, 36.1440315246582
0, 11, 34, 37.37278747558594
0, 11, 35, 37.0363883972168
0, 11, 36, 33.35355758666992
0, 11, 37, 33.55793762207031
0, 11, 38, 33.90486907958984
0, 11, 39, 33.80826950073242
0, 11, 40, 33.56471633911133
0, 11, 41, 29.64126396179199
0, 11, 42, 31.01351356506348
0, 11, 43, 32.38221740722656
0, 11, 44, 29.18235397338867
0, 11, 45, 27.08424949645996
0, 11, 46, 25.76877784729004
0, 11, 47, 26.35958862304688
0, 11, 48, 23.24688529968262
0, 11, 49, 24.52912902832031
0, 12, 0, 34.53054046630859
0, 12, 1, 36.33515548706055
0, 12, 2, 36.48279571533203
0, 12, 3, 35.89091491699219
0, 12, 4, 38.48919677734375
0, 12, 5, 38.17611694335938
0, 12, 6, 36.50334548950195
0, 12, 7, 35.3739128112793
0, 12, 8, 39.25437545776367
0, 12, 9, 37.25624084472656
0, 12, 10, 38.99466705322266
0, 12, 11, 40.16034698486328
0, 12, 12, 40.08924865722656
0, 12, 13, 40.2472038269043
0, 12, 14, 43.05044937133789
0, 12, 15, 42.81062698364258
0, 12, 16, 38.60470199584961
0, 12, 17, 40.01226425170898
0, 12, 18, 40.79144287109375
0, 12, 19, 41.69295120239258
0, 12, 20, 42.71881103515625
0, 12, 21, 38.7802734375
0, 12, 22, 40.74269485473633
0, 12, 23, 42.52375411987305
0, 12, 24, 44.16572570800781
0, 12, 25, 39.82436370849609
0, 12, 26, 43.02630996704102
0, 12, 27, 40.29980850219727
0, 12, 28, 40.52392959594727
0, 12, 29, 38.36424255371094
0, 12, 30, 41.39585113525391
0, 12, 31, 40.72177886962891
0, 12, 32, 36.57268905639648
0, 12, 33, 39.05428314208984
0, 12, 34, 39.5885009765625
0, 12, 35, 37.56990814208984
0, 12, 36, 36.92374420166016
0, 12, 37, 36.68343734741211
0, 12, 38, 36.54824447631836
0, 12, 39, 35.46685028076172
0, 12, 40, 35.33701705932617
0, 12, 41, 30.73896217346191
0, 12, 42, 30.06541061401367
0, 12, 43, 31.70640563964844
0, 12, 44, 32.68146896362305
0, 12, 45, 28.83990669250488
0, 12, 46, 27.92338943481445
0, 12, 47, 27.64385414123535
0, 12, 48, 25.85227012634277
0, 12, 49, 24.80119705200195
0, 13, 0, 35.41381072998047
0, 13, 1, 36.00714111328125
0, 13, 2, 35.59309768676758
0, 13, 3, 37.56637573242188
0, 13, 4, 41.17377471923828
0, 13, 5, 39.13780975341797
0, 13, 6, 39.03486251831055
0, 13, 7, 39.2113037109375
0, 13, 8, 37.85065460205078
0, 13, 9, 39.69840240478516
0, 13, 10, 38.09265518188477
0, 13, 11, 37.41866302490234
0, 13, 12, 41.70772933959961
0, 13, 13, 41.29778289794922
0, 13, 14, 43.41590881347656
0, 13, 15, 43.58843612670898
0, 13, 16, 39.4530029296875
0, 13, 17, 46.50697708129883
0, 13, 18, 45.37484741210938
0, 13, 19, 43.06094741821289
0, 13, 20, 44.12973022460938
0, 13, 21, 44.09193420410156
0, 13, 22, 44.64370346069336
0, 13, 23, 43.06972503662109
0, 13, 24, 42.38859176635742
0, 13, 25, 45.4105339050293
0, 13, 26, 44.47560882568359
0, 13, 27, 43.55474090576172
0, 13, 28, 41.92576599121094
0, 13, 29, 38.21251678466797
0, 13, 30, 43.04719924926758
0, 13, 31, 41.99651336669922
0, 13, 32, 41.84043884277344
0, 13, 33, 39.11751937866211
0, 13, 34, 39.51600646972656
0, 13, 35, 40.46909332275391
0, 13, 36, 35.34322357177734
0, 13, 37, 33.62827301025391
0, 13, 38, 35.08023071289062
0, 13, 39, 35.53691864013672
0, 13, 40, 32.52887344360352
0, 13, 41, 35.84917449951172
0, 13, 42, 33.08326721191406
0, 13, 43, 33.42951202392578
0, 13, 44, 35.23224258422852
0, 13, 45, 32.40919876098633
0, 13, 46, 29.06367301940918
0, 13, 47, 28.38891983032227
0, 13, 48, 26.10056686401367
0, 13, 49, 25.39399147033691
0, 14, 0, 35.87545013427734
0, 14, 1, 34.89658737182617
0, 14, 2, 37.32362365722656
0, 14, 3, 40.66459655761719
0, 14, 4, 40.94985580444336
0, 14, 5, 40.66613388061523
0, 14, 6, 40.59680557250977
0, 14, 7, 40.8068962097168
0, 14, 8, 42.91808700561523
0, 14, 9, 44.96052551269531
0, 14, 10, 42.01339340209961
0, 14, 11, 42.93563079833984
0, 14, 12, 42.84868621826172
0, 14, 13, 49.08756637573242
0, 14, 14, 45.09500503540039
0, 14, 15, 44.86505126953125
0, 14, 16, 44.98962020874023
0, 14, 17, 43.60029220581055
0, 14, 18, 46.49423217773438
0, 14, 19, 45.55348587036133
0, 14, 20, 46.84978866577148
0, 14, 21, 46.56353759765625
0, 14, 22, 45.9630241394043
0, 14, 23, 45.12785720825195
0, 14, 24, 43.23670959472656
0, 14, 25, 45.15081787109375
0, 14, 26, 46.07255554199219
0, 14, 27, 44.40443420410156
0, 14, 28, 44.45256805419922
0, 14, 29, 44.49016189575195
0, 14, 30, 40.61397171020508
0, 14, 31, 40.79917526245117
0, 14, 32, 41.43321990966797
0, 14, 33, 43.99424362182617
0, 14, 34, 42.09162521362305
0, 14, 35, 42.51989364624023
0, 14, 36, 37.74128723144531
0, 14, 37, 37.10861968994141
0, 14, 38, 37.93157196044922
0, 14, 39, 35.61904525756836
0, 14, 40, 36.08771514892578
0, 14, 41, 37.34723281860352
0, 14, 42, 35.79942321777344
0, 14, 43, 33.03421783447266
0, 14, 44, 32.35876083374023
0, 14, 45, 34.569580078125
0, 14, 46, 31.18648719787598
0, 14, 47, 28.46179389953613
0, 14, 48, 29.45377349853516
0, 14, 49, 25.27263259887695
0, 15, 0, 37.04974746704102
0, 15, 1, 38.71591567993164
0, 15, 2, 36.01828002929688
0, 15, 3, 37.8349494934082
0, 15, 4, 40.51613998413086
0, 15, 5, 39.08236694335938
0, 15, 6, 41.7789421081543
0, 15, 7, 43.77366638183594
0, 15, 8, 41.65850830078125
0, 15, 9, 41.76572036743164
0, 15, 10, 43.59214401245117
0, 15, 11, 44.17354965209961
0, 15, 12, 43.76444625854492
0, 15, 13, 46.53507232666016
0, 15, 14, 43.10300064086914
0, 15, 15, 47.04257202148438
0, 15, 16, 44.5693473815918
0, 15, 17, 45.43650436401367
0, 15, 18, 45.77434921264648
0, 15, 19, 44.26801681518555
0, 15, 20, 45.05253219604492
0, 15, 21, 46.19515609741211
0, 15, 22, 43.91964721679688
0, 15, 23, 44.10078811645508
0, 15, 24, 44.99720764160156
0, 15, 25, 48.31076812744141
0, 15, 26, 46.90875625610352
0, 15, 27, 47.69195556640625
0, 15, 28, 45.59438323974609
0, 15, 29, 46.25928115844727
0, 15, 30, 43.83554077148438
0, 15, 31, 46.12484741210938
0, 15, 32, 43.77995681762695
0, 15, 33, 40.5701789855957
0, 15, 34, 39.15853118896484
0, 15, 35, 40.08137893676758
0, 15, 36, 37.20709228515625
0, 15, 37, 40.78532409667969
0, 15, 38, 37.37292861938477
0, 15, 39, 37.66728973388672
0, 15, 40, 37.56488418579102
0, 15, 41, 34.79643249511719
0, 15, 42, 36.65244293212891
0, 15, 43, 34.92705917358398
0, 15, 44, 34.47729873657227
0, 15, 45, 30.59108352661133
0, 15, 46, 29.81091117858887
0, 15, 47, 27.52373504638672
0, 15, 48, 29.0913257598877
0, 15, 49, 24.95290374755859
0, 16, 0, 38.3720588684082
0, 16, 1, 39.53197479248047
0, 16, 2, 42.7234992980957
0, 16, 3, 40.17286682128906
0, 16, 4, 40.21833038330078
0, 16, 5, 43.38190078735352
0, 16, 6, 47.20087432861328
0, 16, 7, 43.21519088745117
0, 16, 8, 40.62864685058594
0, 16, 9, 43.52999496459961
0, 16, 10, 46.37788772583008
0, 16, 11, 46.8671875
0, 16, 12, 45.12995147705078
0, 16, 13, 46.45578384399414
0, 16, 14, 47.57202911376953
0, 16, 15, 52.02321243286133
0, 16, 16, 47.33906555175781
0, 16, 17, 46.57911682128906
0, 16, 18, 49.52823638916016
0, 16, 19, 48.54936599731445
0, 16, 20, 48.9002571105957
0, 16, 21, 49.74332427978516
0, 16, 22, 48.51557540893555
0, 16, 23, 47.65174102783203
0, 16, 24, 47.79304122924805
0, 16, 25, 47.33682250976562
0, 16, 26, 49.55786895751953
0, 16, 27, 49.2106819152832
0, 16, 28, 47.72857284545898
0, 16, 29, 48.19683837890625
0, 16, 30, 45.42743682861328
0, 16, 31, 47.88399505615234
0, 16, 32, 47.62694549560547
0, 16, 33, 41.86556243896484
0, 16, 34, 42.12828063964844
0, 16, 35, 41.10887145996094
0, 16, 36, 45.74745941162109
0, 16, 37, 38.91782379150391
0, 16, 38, 39.54437637329102
0, 16, 39, 36.67931365966797
0, 16, 40, 36.54394912719727
0, 16, 41, 33.79106521606445
0, 16, 42, 37.76105880737305
0, 16, 43, 34.06821823120117
0, 16, 44, 33.14788436889648
0, 16, 45, 32.63970947265625
0, 16, 46, 31.85982513427734
0, 16, 47, 29.71846199035645
0, 16, 48, 29.90725708007812
0, 16, 49, 26.26982498168945
0, 17, 0, 40.04856491088867
0, 17, 1, 39.33665084838867
0, 17, 2, 43.55097198486328
0, 17, 3, 41.83850860595703
0, 17, 4, 40.8587646484375
0, 17, 5, 42.62486267089844
0, 17, 6, 39.64034652709961
0, 17, 7, 45.01183700561523
0, 17, 8, 45.07664108276367
0, 17, 9, 45.58587265014648
0, 17, 10, 46.33095550537109
0, 17, 11, 45.02582550048828
0, 17, 12, 47.34526443481445
0, 17, 13, 46.49441146850586
0, 17, 14, 49.47772979736328
0, 17, 15, 49.5490608215332
0, 17, 16, 49.59127044677734
0, 17, 17, 48.19364166259766
0, 17, 18, 51.61866760253906
0, 17, 19, 48.59249496459961
0, 17, 20, 47.27305603027344
0, 17, 21, 47.59050750732422
0, 17, 22, 49.63994979858398
0, 17, 23, 51.90578079223633
0, 17, 24, 51.63614654541016
0, 17, 25, 50.08112716674805
0, 17, 26, 46.18656158447266
0, 17, 27, 47.25816345214844
0, 17, 28, 46.02196884155273
0, 17, 29, 50.30020141601562
0, 17, 30, 45.40829849243164
0, 17, 31, 44.2758674621582
0, 17, 32, 43.3329963684082
0, 17, 33, 43.31120681762695
0, 17, 34, 41.22331619262695
0, 17, 35, 40.77732086181641
0, 17, 36, 39.28147506713867
0, 17, 37, 44.80670928955078
0, 17, 38, 40.19751739501953
0, 17, 39, 40.17224502563477
0, 17, 40, 37.75055694580078
0, 17, 41, 40.34665298461914
0, 17, 42, 37.72000503540039
0, 17, 43, 34.01245498657227
0, 17, 44, 36.2766227722168
0, 17, 45, 31.29055976867676
0, 17, 46, 32.14594268798828
0, 17, 47, 31.59288787841797
0, 17, 48, 32.28518295288086
0, 17, 49, 27.29692077636719
0, 18, 0, 38.92655181884766
0, 18, 1, 40.75213623046875
0, 18, 2, 42.90178298950195
0, 18, 3, 41.16302108764648
0, 18, 4, 43.41222763061523
0, 18, 5, 44.52276229858398
0, 18, 6, 47.01876831054688
0, 18, 7, 48.32430267333984
0, 18, 8, 45.94551467895508
0, 18, 9, 45.4517936706543
0, 18, 10, 49.33793258666992
0, 18, 11, 50.51506423950195
0, 18, 12, 50.18237686157227
0, 18, 13, 50.60302352905273
0, 18, 14, 48.40643310546875
0, 18, 15, 47.34329605102539
0, 18, 16, 48.78459548950195
0, 18, 17, 48.24936294555664
0, 18, 18, 49.6014289855957
0, 18, 19, 53.82065582275391
0, 18, 20, 52.15040969848633
0, 18, 21, 53.37308120727539
0, 18, 22, 50.27826690673828
0, 18, 23, 49.95116806030273
0, 18, 24, 52.87044906616211
0, 18, 25, 51.94446182250977
0, 18, 26, 50.54967498779297
0, 18, 27, 49.5003776550293
0, 18, 28, 50.11415481567383
0, 18, 29, 47.29574966430664
0, 18, 30, 48.77748870849609
0, 18, 31, 45.02707290649414
0, 18, 32, 41.23735427856445
0, 18, 33, 47.00425720214844
0, 18, 34, 44.52357864379883
0, 18, 35, 43.89499664306641
0, 18, 36, 40.16451263427734
0, 18, 37, 40.94705200195312
0, 18, 38, 39.05081176757812
0, 18, 39, 42.88165664672852
0, 18, 40, 37.73518753051758
0, 18, 41, 37.6365966796875
0, 18, 42, 34.25323867797852
0, 18, 43, 33.3385009765625
0, 18, 44, 35.01908493041992
0, 18, 45, 29.12899780273438
0, 18, 46, 33.63011932373047
0, 18, 47, 31.95158576965332
0, 18, 48, 30.33420181274414
0, 18, 49, 27.66185188293457
0, 19, 0, 37.23523330688477
0, 19, 1, 40.431884765625
0, 19, 2, 42.20598983764648
0, 19, 3, 43.69856643676758
0, 19, 4, 46.02009963989258
0, 19, 5, 42.46406555175781
0, 19, 6, 45.86145401000977
0, 19, 7, 46.65381622314453
0, 19, 8, 50.30875015258789
0, 19, 9, 46.51078033447266
0, 19, 10, 51.09592819213867
0, 19, 11, 47.81942367553711
0, 19, 12, 46.08026885986328
0, 19, 13, 47.48974990844727
0, 19, 14, 48.91189956665039
0, 19, 15, 50.07318115234375
0, 19, 16, 49.11852264404297
0, 19, 17, 50.02980804443359
0, 19, 18, 50.26888275146484
0, 19, 19, 50.8548583984375
0, 19, 20, 50.20018768310547
0, 19, 21, 50.71047973632812
0, 19, 22, 55.90632247924805
0, 19, 23, 52.32361221313477
0, 19, 24, 52.9654426574707
0, 19, 25, 51.78966903686523
0, 19, 26, 47.981201171875
0, 19, 27, 54.74280166625977
0, 19, 28, 49.35078811645508
0, 19, 29, 46.33151626586914
0, 19, 30, 46.26273727416992
0, 19, 31, 48.8560905456543
0, 19, 32, 43.91679382324219
0, 19, 33, 45.00775146484375
0, 19, 34, 46.57022857666016
0, 19, 35, 44.90696334838867
0, 19, 36, 45.50214385986328
0, 19, 37, 40.16962814331055
0, 19, 38, 42.35873413085938
0, 19, 39, 38.99223709106445
0, 19, 40, 40.74771499633789
0, 19, 41, 41.55781936645508
0, 19, 42, 39.09191131591797
0, 19, 43, 37.11615371704102
0, 19, 44, 34.64900588989258
0, 19, 45, 33.10609436035156
0, 19, 46, 34.43647766113281
0, 19, 47, 31.94482231140137
0, 19, 48, 31.47467613220215
0, 19, 49, 29.30905342102051
0, 20, 0, 36.88291168212891
0, 20, 1, 40.46020126342773
0, 20, 2, 43.21017074584961
0, 20, 3, 45.59646224975586
0, 20, 4, 44.91067504882812
0, 20, 5, 42.81978225708008
0, 20, 6, 47.34292984008789
0, 20, 7, 50.2539176940918
0, 20, 8, 44.88224029541016
0, 20, 9, 47.5223274230957
0, 20, 10, 50.14737319946289
0, 20, 11, 46.31402206420898
0, 20, 12, 48.21121597290039
0, 20, 13, 52.17861557006836
0, 20, 14, 53.13575744628906
0, 20, 15, 53.62717819213867
0, 20, 16, 53.95818710327148
0, 20, 17, 51.6750602722168
0, 20, 18, 52.35309982299805
0, 20, 19, 51.10168838500977
0, 20, 20, 54.03859329223633
0, 20, 21, 53.95335006713867
0, 20, 22, 55.91404724121094
0, 20, 23, 52.58746719360352
0, 20, 24, 53.33459854125977
0, 20, 25, 50.9668083190918
0, 20, 26, 51.98913192749023
0, 20, 27, 47.26834869384766
0, 20, 28, 47.02143096923828
0, 20, 29, 47.42740631103516
0, 20, 30, 49.41603469848633
0, 20, 31, 45.93030548095703
0, 20, 32, 47.65919494628906
0, 20, 33, 49.01737594604492
0, 20, 34, 47.61907196044922
0, 20, 35, 50.52793121337891
0, 20, 36, 43.05744552612305
0, 20, 37, 43.07940292358398
0, 20, 38, 43.22061920166016
0, 20, 39, 42.54111862182617
0, 20, 40, 40.5284423828125
0, 20, 41, 41.28003311157227
0, 20, 42, 37.8419075012207
0, 20, 43, 38.0439567565918
0, 20, 44, 38.47235107421875
0, 20, 45, 38.35630035400391
0, 20, 46, 32.46308898925781
0, 20, 47, 31.01801490783691
0, 20, 48, 30.10017585754395
0, 20, 49, 31.4094181060791
0, 21, 0, 37.32484436035156
0, 21, 1, 41.63071823120117
0, 21, 2, 43.62432098388672
0, 21, 3, 41.23273086547852
0, 21, 4, 44.24214935302734
