# TOPAS Version: 3.7
# Parameter File: TestingDose9.txt
# Results for scorer TestingDose9_Water
# Scored in component: Water
# X in 50 bins of 0.1 cm
# Y in 50 bins of 0.1 cm
# Z in 20 bins of 0.1 cm
# DoseToMedium ( Gy ) : Sum   
0, 0, 0, 6.468287017113994e-10
0, 0, 1, 4.009781395808432e-09
0, 0, 2, 1.596288079497299e-08
0, 0, 3, 7.686121961114623e-09
0, 0, 4, 1.52924730656423e-08
0, 0, 5, 2.055392478439444e-08
0, 0, 6, 7.864921158784455e-09
0, 0, 7, 1.46301939452087e-08
0, 0, 8, 8.448004074068649e-09
0, 0, 9, 9.798927891324638e-09
0, 0, 10, 1.114467185203694e-08
0, 0, 11, 9.25912857496769e-09
0, 0, 12, 1.002695615426319e-08
0, 0, 13, 9.013301216498348e-09
0, 0, 14, 6.118020756673559e-09
0, 0, 15, 0
0, 0, 16, 1.895437762300389e-08
0, 0, 17, 1.144537353781061e-08
0, 0, 18, 1.353822920435732e-08
0, 0, 19, 4.046132318080709e-09
0, 1, 0, 1.617797273922861e-08
0, 1, 1, 1.023285811641017e-08
0, 1, 2, 1.729050325138815e-08
0, 1, 3, 2.470661897291393e-09
0, 1, 4, 7.548441871563227e-09
0, 1, 5, 5.719873907850115e-09
0, 1, 6, 6.653671835721298e-09
0, 1, 7, 1.108344416245188e-09
0, 1, 8, 4.36014069293833e-09
0, 1, 9, 1.178247366340202e-08
0, 1, 10, 7.744290542177623e-09
0, 1, 11, 1.167367180698875e-08
0, 1, 12, 4.022826516347777e-09
0, 1, 13, 9.826754521213843e-09
0, 1, 14, 5.867622387967231e-09
0, 1, 15, 6.423335197069946e-09
0, 1, 16, 6.376131178598143e-09
0, 1, 17, 1.371799007721108e-09
0, 1, 18, 3.44261130713619e-09
0, 1, 19, 1.696296325626179e-09
0, 2, 0, 1.427172513501773e-08
0, 2, 1, 9.942046297339857e-09
0, 2, 2, 1.829946505438329e-08
0, 2, 3, 1.694658635642554e-08
0, 2, 4, 1.6174572792238e-08
0, 2, 5, 5.876310105179527e-09
0, 2, 6, 3.513741519967084e-09
0, 2, 7, 1.00866444086023e-08
0, 2, 8, 2.748765437488032e-09
0, 2, 9, 1.01286996567751e-08
0, 2, 10, 0
0, 2, 11, 1.703472740643974e-08
0, 2, 12, 1.433781204873696e-09
0, 2, 13, 4.263676967042329e-09
0, 2, 14, 5.631827448837612e-09
0, 2, 15, 1.249118852797437e-08
0, 2, 16, 7.873708796068968e-09
0, 2, 17, 1.790779968757761e-08
0, 2, 18, 1.232721480448618e-08
0, 2, 19, 5.198419916752073e-09
0, 3, 0, 3.523977110120313e-09
0, 3, 1, 1.862019161080752e-08
0, 3, 2, 1.646518299480704e-08
0, 3, 3, 7.655047262744574e-09
0, 3, 4, 3.525046921026842e-09
0, 3, 5, 3.927086655863832e-09
0, 3, 6, 9.455219940335269e-10
0, 3, 7, 2.77262879322393e-09
0, 3, 8, 4.939229025779923e-09
0, 3, 9, 8.021316943995771e-09
0, 3, 10, 7.148348024621498e-10
0, 3, 11, 1.156000095647869e-08
0, 3, 12, 5.1114974475297e-09
0, 3, 13, 3.933523284871399e-09
0, 3, 14, 8.984256893995735e-09
0, 3, 15, 1.143358385746751e-08
0, 3, 16, 1.520862191739525e-08
0, 3, 17, 7.300302140578196e-09
0, 3, 18, 1.455764930824444e-08
0, 3, 19, 9.079707652404068e-09
0, 4, 0, 4.059851121951397e-09
0, 4, 1, 9.560472413738808e-09
0, 4, 2, 3.33567395927048e-09
0, 4, 3, 2.01403818067547e-08
0, 4, 4, 9.500077169377619e-09
0, 4, 5, 1.470739618980588e-08
0, 4, 6, 9.006673629130546e-09
0, 4, 7, 1.378912184435421e-08
0, 4, 8, 1.602003862899437e-08
0, 4, 9, 1.75982464156732e-08
0, 4, 10, 1.151670669941041e-08
0, 4, 11, 1.094156942826885e-08
0, 4, 12, 1.13867582030025e-08
0, 4, 13, 4.113797302807143e-09
0, 4, 14, 8.8746539006479e-09
0, 4, 15, 5.691509485927781e-09
0, 4, 16, 2.147200461877219e-08
0, 4, 17, 6.459750956366861e-09
0, 4, 18, 1.311804442849507e-08
0, 4, 19, 1.342678146443177e-08
0, 5, 0, 8.28308621692031e-09
0, 5, 1, 2.047010028149998e-08
0, 5, 2, 3.448349872314793e-08
0, 5, 3, 3.811476290138671e-08
0, 5, 4, 7.845374128123694e-09
0, 5, 5, 3.300160500430138e-08
0, 5, 6, 1.151502537766191e-08
0, 5, 7, 1.896377632704116e-08
0, 5, 8, 2.678539701150839e-08
0, 5, 9, 8.385406147226604e-09
0, 5, 10, 1.138641181341882e-08
0, 5, 11, 1.266263716104277e-08
0, 5, 12, 1.054137221956353e-08
0, 5, 13, 1.466545285211396e-08
0, 5, 14, 1.065829913216021e-08
0, 5, 15, 1.85407103003854e-08
0, 5, 16, 1.36827207342094e-08
0, 5, 17, 2.130106402375986e-08
0, 5, 18, 2.175105962010093e-08
0, 5, 19, 1.25104726578229e-08
0, 6, 0, 6.848693168137743e-09
0, 6, 1, 4.663427422002542e-09
0, 6, 2, 2.373115393083935e-08
0, 6, 3, 3.211997778862496e-08
0, 6, 4, 2.490300943236434e-08
0, 6, 5, 5.529573687823586e-09
0, 6, 6, 2.305100998967191e-08
0, 6, 7, 1.372820079836856e-08
0, 6, 8, 3.833176620560153e-08
0, 6, 9, 1.8178651473022e-08
0, 6, 10, 1.109149216915739e-08
0, 6, 11, 1.525287984804891e-08
0, 6, 12, 2.141733368432597e-08
0, 6, 13, 1.171203933836296e-08
0, 6, 14, 5.877036635126842e-09
0, 6, 15, 9.921858001860073e-09
0, 6, 16, 4.824860955210397e-09
0, 6, 17, 8.928324746193539e-09
0, 6, 18, 1.762343337929906e-08
0, 6, 19, 1.005557948019487e-08
0, 7, 0, 5.393151703003696e-09
0, 7, 1, 3.424167172028092e-09
0, 7, 2, 1.118957637658013e-08
0, 7, 3, 2.170986590499524e-08
0, 7, 4, 9.600688244404409e-09
0, 7, 5, 2.10860466864915e-08
0, 7, 6, 6.165099097898974e-09
0, 7, 7, 1.240958447112916e-08
0, 7, 8, 4.945743814488424e-09
0, 7, 9, 1.896314216764949e-08
0, 7, 10, 5.530988111956958e-09
0, 7, 11, 1.639140556619623e-08
0, 7, 12, 6.474909497455883e-09
0, 7, 13, 1.353702128170653e-08
0, 7, 14, 8.29348323350132e-09
0, 7, 15, 7.21792181579417e-09
0, 7, 16, 0
0, 7, 17, 8.055902611658894e-09
0, 7, 18, 5.783190815122907e-09
0, 7, 19, 2.691672662535893e-09
0, 8, 0, 1.876187738503177e-08
0, 8, 1, 7.868558249413127e-09
0, 8, 2, 1.268553084798896e-08
0, 8, 3, 4.542157583387052e-08
0, 8, 4, 2.514313557355763e-08
0, 8, 5, 2.345624139366009e-08
0, 8, 6, 3.318608321478678e-08
0, 8, 7, 9.718919891099631e-09
0, 8, 8, 9.313354532025642e-09
0, 8, 9, 2.943345833728017e-08
0, 8, 10, 1.400310267740679e-08
0, 8, 11, 1.992534492956111e-08
0, 8, 12, 5.199010555401173e-09
0, 8, 13, 1.305064056822403e-08
0, 8, 14, 1.173829655698455e-08
0, 8, 15, 4.460008806717042e-09
0, 8, 16, 3.296969364185998e-09
0, 8, 17, 3.780787682927667e-09
0, 8, 18, 1.162373042262743e-08
0, 8, 19, 1.071732746993348e-08
0, 9, 0, 1.622059642159002e-08
0, 9, 1, 8.254366079540887e-09
0, 9, 2, 1.024511675495887e-08
0, 9, 3, 8.894236458445448e-09
0, 9, 4, 1.767772772609533e-08
0, 9, 5, 9.158323877045405e-09
0, 9, 6, 1.059988807838863e-08
0, 9, 7, 7.657679823580565e-09
0, 9, 8, 3.220923261437747e-08
0, 9, 9, 1.564804286147137e-08
0, 9, 10, 8.635755222030639e-09
0, 9, 11, 1.819465289543132e-08
0, 9, 12, 8.731200651368454e-09
0, 9, 13, 3.739765386256977e-09
0, 9, 14, 1.273666061507583e-08
0, 9, 15, 5.594428476030089e-09
0, 9, 16, 8.399324791241725e-09
0, 9, 17, 4.351406790448209e-09
0, 9, 18, 5.655594659259577e-09
0, 9, 19, 6.898454252279862e-09
0, 10, 0, 7.063236218129987e-09
0, 10, 1, 1.385796366548675e-08
0, 10, 2, 3.454142083469947e-09
0, 10, 3, 4.780329909692682e-09
0, 10, 4, 4.543295517578372e-09
0, 10, 5, 2.788431530120761e-08
0, 10, 6, 1.302284413640109e-08
0, 10, 7, 2.724733860759443e-08
0, 10, 8, 1.272411864761125e-08
0, 10, 9, 6.628760207405548e-09
0, 10, 10, 2.078157734786146e-08
0, 10, 11, 1.34305473409313e-08
0, 10, 12, 9.469674822071283e-09
0, 10, 13, 6.911554439881229e-09
0, 10, 14, 1.571118701804153e-08
0, 10, 15, 1.275129957178933e-08
0, 10, 16, 1.302446417383862e-08
0, 10, 17, 4.329904612632163e-08
0, 10, 18, 2.41415953894375e-09
0, 10, 19, 3.943831039521228e-09
0, 11, 0, 2.084365569032798e-08
0, 11, 1, 2.274102683941237e-08
0, 11, 2, 2.864624315535025e-09
0, 11, 3, 1.357780288202548e-08
0, 11, 4, 9.417739477157738e-09
0, 11, 5, 2.108746066653566e-08
0, 11, 6, 3.475300403010806e-08
0, 11, 7, 1.180641628906187e-08
0, 11, 8, 8.469371870489795e-09
0, 11, 9, 1.105580871296752e-08
0, 11, 10, 2.236653973142211e-09
0, 11, 11, 8.488959757357861e-09
0, 11, 12, 1.593853582448901e-08
0, 11, 13, 1.145457062534661e-08
0, 11, 14, 1.211472255846502e-08
0, 11, 15, 1.159929041705254e-08
0, 11, 16, 1.557812012720206e-08
0, 11, 17, 2.036695967433388e-08
0, 11, 18, 1.944895622330023e-08
0, 11, 19, 1.120203307891643e-08
0, 12, 0, 4.141082499131699e-08
0, 12, 1, 1.319943709887639e-08
0, 12, 2, 6.880754632732078e-09
0, 12, 3, 8.51816661651128e-09
0, 12, 4, 3.500341350104463e-08
0, 12, 5, 1.323084752868908e-08
0, 12, 6, 9.448504201259311e-09
0, 12, 7, 1.030305618598959e-08
0, 12, 8, 1.216413103577452e-08
0, 12, 9, 3.05882466022922e-08
0, 12, 10, 8.065963008618837e-09
0, 12, 11, 1.125182613748166e-08
0, 12, 12, 3.737059373065676e-08
0, 12, 13, 4.548728060882468e-09
0, 12, 14, 2.186766856482336e-08
0, 12, 15, 3.774340839868273e-08
0, 12, 16, 1.656208503675316e-08
0, 12, 17, 9.176821080814079e-09
0, 12, 18, 1.297058993543487e-08
0, 12, 19, 1.673146954317417e-08
0, 13, 0, 1.415196493326221e-08
0, 13, 1, 1.365615620585459e-08
0, 13, 2, 2.023489464875183e-08
0, 13, 3, 6.897418192153282e-09
0, 13, 4, 1.417954997862125e-08
0, 13, 5, 1.224905865626624e-08
0, 13, 6, 8.157627462423989e-09
0, 13, 7, 4.940628350880161e-09
0, 13, 8, 1.125720583416978e-08
0, 13, 9, 9.632240782764256e-09
0, 13, 10, 2.211796612527905e-08
0, 13, 11, 1.793273440853227e-08
0, 13, 12, 2.645066832229759e-09
0, 13, 13, 2.228378903623707e-08
0, 13, 14, 1.572136021366077e-08
0, 13, 15, 1.724807852099275e-08
0, 13, 16, 6.565887389342606e-09
0, 13, 17, 3.304067419662715e-08
0, 13, 18, 1.832333929030483e-08
0, 13, 19, 1.487425116408758e-08
0, 14, 0, 1.999707421873609e-08
0, 14, 1, 2.182473934908558e-08
0, 14, 2, 1.328525378596623e-08
0, 14, 3, 2.925532349706828e-08
0, 14, 4, 1.182629283391634e-08
0, 14, 5, 1.395618998145665e-08
0, 14, 6, 2.760099171439379e-08
0, 14, 7, 9.719770766025704e-09
0, 14, 8, 1.256209181121903e-08
0, 14, 9, 3.141729365552237e-08
0, 14, 10, 7.888515618503789e-09
0, 14, 11, 4.470563474967548e-09
0, 14, 12, 1.236938995674564e-08
0, 14, 13, 2.610079796738773e-08
0, 14, 14, 1.261459736667803e-08
0, 14, 15, 9.802925582391708e-09
0, 14, 16, 2.989977687661849e-08
0, 14, 17, 1.731293330919925e-08
0, 14, 18, 1.934435545081215e-08
0, 14, 19, 2.035853263748777e-08
0, 15, 0, 1.553170925205904e-08
0, 15, 1, 3.7221436599566e-08
0, 15, 2, 2.226976825170368e-08
0, 15, 3, 1.030459539919093e-08
0, 15, 4, 2.447421110218784e-08
0, 15, 5, 1.342905875389988e-08
0, 15, 6, 7.873810936587233e-09
0, 15, 7, 8.62603677376228e-09
0, 15, 8, 1.091255530383251e-08
0, 15, 9, 2.881647986896496e-08
0, 15, 10, 1.41706388845364e-08
0, 15, 11, 1.911594260661786e-08
0, 15, 12, 2.573685442541773e-08
0, 15, 13, 2.792143760643739e-08
0, 15, 14, 1.310167974111209e-08
0, 15, 15, 1.836628626961101e-08
0, 15, 16, 1.111207481585552e-08
0, 15, 17, 3.32413674364318e-09
0, 15, 18, 2.439689694710978e-08
0, 15, 19, 1.133273030973214e-08
0, 16, 0, 3.135958825950524e-09
0, 16, 1, 5.269288561038366e-09
0, 16, 2, 2.221784889400169e-08
0, 16, 3, 2.039955404598004e-08
0, 16, 4, 1.529379112241713e-08
0, 16, 5, 1.850684050452855e-08
0, 16, 6, 1.849442732293483e-08
0, 16, 7, 1.44919454214687e-08
0, 16, 8, 5.526315405290916e-09
0, 16, 9, 2.748205751856858e-08
0, 16, 10, 3.888924027251051e-08
0, 16, 11, 2.072484583948153e-08
0, 16, 12, 1.291907913980594e-08
0, 16, 13, 2.656836883829783e-08
0, 16, 14, 1.944181171609216e-08
0, 16, 15, 1.701824814404063e-08
0, 16, 16, 1.196086607535563e-08
0, 16, 17, 2.151156053287195e-08
0, 16, 18, 9.705733994280763e-09
0, 16, 19, 8.960126862689322e-09
0, 17, 0, 5.451978069004326e-08
0, 17, 1, 3.130143921836748e-09
0, 17, 2, 2.447671221261771e-08
0, 17, 3, 1.553471129511763e-08
0, 17, 4, 2.573651336490457e-08
0, 17, 5, 2.679287902651595e-08
0, 17, 6, 1.814486161322293e-08
0, 17, 7, 2.521725761539528e-08
0, 17, 8, 9.740483086773111e-09
0, 17, 9, 2.859173120484115e-09
0, 17, 10, 2.640510210483171e-08
0, 17, 11, 3.573655860122926e-08
0, 17, 12, 2.062668258417943e-08
0, 17, 13, 3.097605016932903e-08
0, 17, 14, 1.949065264739147e-08
0, 17, 15, 4.817866106066049e-09
0, 17, 16, 2.683324318297764e-08
0, 17, 17, 9.563146718960525e-09
0, 17, 18, 2.325996995011792e-08
0, 17, 19, 1.469702670675588e-08
0, 18, 0, 1.342324029707243e-08
0, 18, 1, 2.894907069617147e-08
0, 18, 2, 1.293593765439027e-08
0, 18, 3, 7.9275190856265e-09
0, 18, 4, 3.600858988761502e-08
0, 18, 5, 2.507768925852361e-08
0, 18, 6, 3.508351653636055e-08
0, 18, 7, 1.962891360562935e-08
0, 18, 8, 1.374624858385687e-08
0, 18, 9, 2.397320564284655e-08
0, 18, 10, 5.857513141194204e-09
0, 18, 11, 9.728458039148791e-09
0, 18, 12, 1.218390188739704e-08
0, 18, 13, 1.478069133753479e-08
0, 18, 14, 1.544283279031333e-08
0, 18, 15, 3.414116633848607e-08
0, 18, 16, 1.185367182188202e-08
0, 18, 17, 2.01074019656744e-08
0, 18, 18, 2.321636216606748e-08
0, 18, 19, 2.816019062379382e-08
0, 19, 0, 3.18393844622733e-08
0, 19, 1, 2.372121699067975e-08
0, 19, 2, 3.433996553781071e-08
0, 19, 3, 1.672435523403237e-08
0, 19, 4, 1.162636298346342e-08
0, 19, 5, 2.236077989437035e-08
0, 19, 6, 1.363958723743508e-08
0, 19, 7, 1.556424322757266e-08
0, 19, 8, 2.401090881676282e-08
0, 19, 9, 1.878644440012067e-08
0, 19, 10, 1.435499807911356e-08
0, 19, 11, 1.001910199249778e-08
0, 19, 12, 1.720742126565256e-08
0, 19, 13, 2.149216626889938e-08
0, 19, 14, 1.757305945204735e-08
0, 19, 15, 9.480617180201989e-09
0, 19, 16, 6.862522106132474e-09
0, 19, 17, 2.848365543428599e-09
0, 19, 18, 4.181963930705024e-08
0, 19, 19, 1.034166707825079e-08
0, 20, 0, 2.045432623276611e-08
0, 20, 1, 2.221494099785559e-08
0, 20, 2, 2.28546870317814e-08
0, 20, 3, 2.026760270723571e-08
0, 20, 4, 5.028699234799205e-08
0, 20, 5, 1.655252823695719e-08
0, 20, 6, 7.990268890978314e-09
0, 20, 7, 2.555811562388044e-08
0, 20, 8, 9.909421727627432e-09
0, 20, 9, 4.676425469085643e-09
0, 20, 10, 1.1211129802291e-08
0, 20, 11, 1.908858848764794e-08
0, 20, 12, 1.580658626210152e-08
0, 20, 13, 1.646447422842812e-08
0, 20, 14, 6.436676969201471e-09
0, 20, 15, 5.822017534740098e-09
0, 20, 16, 1.660813175874409e-08
0, 20, 17, 2.806954668699291e-08
0, 20, 18, 2.365144347038495e-08
0, 20, 19, 2.074213334424257e-08
0, 21, 0, 4.123782204601412e-08
0, 21, 1, 2.393723974591921e-08
0, 21, 2, 2.355391615083136e-08
0, 21, 3, 1.76716490329909e-08
0, 21, 4, 1.680088068667374e-08
0, 21, 5, 8.562867748196368e-09
0, 21, 6, 8.432578191275297e-09
0, 21, 7, 1.541926231141133e-08
0, 21, 8, 5.334717201321837e-08
0, 21, 9, 2.461118597807399e-08
0, 21, 10, 6.308409794542058e-09
0, 21, 11, 2.570565982296102e-08
0, 21, 12, 2.716679148306866e-08
0, 21, 13, 7.049502759315374e-09
0, 21, 14, 1.018342210556966e-08
0, 21, 15, 1.079916867041675e-08
0, 21, 16, 3.894724986963638e-09
0, 21, 17, 2.766173601287392e-08
0, 21, 18, 1.39236364660178e-08
0, 21, 19, 1.635481972073194e-08
0, 22, 0, 1.541151206652103e-08
0, 22, 1, 3.270280757305954e-08
0, 22, 2, 2.869719395448556e-08
0, 22, 3, 2.351092298624735e-08
0, 22, 4, 1.131595173120559e-08
0, 22, 5, 2.8497199267008e-08
0, 22, 6, 1.585939024550953e-08
0, 22, 7, 1.089570389467553e-08
0, 22, 8, 2.674393506651995e-08
0, 22, 9, 1.434681529133286e-08
0, 22, 10, 1.426018947370267e-08
0, 22, 11, 1.122107207152112e-08
0, 22, 12, 1.249616232712469e-08
0, 22, 13, 1.613521583010424e-08
0, 22, 14, 2.629653828023493e-08
0, 22, 15, 1.742931843295992e-08
0, 22, 16, 2.21249472076579e-08
0, 22, 17, 1.473960420383946e-08
0, 22, 18, 2.419409028675545e-08
0, 22, 19, 9.760781516376937e-09
0, 23, 0, 2.836036472331216e-08
0, 23, 1, 3.71485882055822e-08
0, 23, 2, 6.914538275282212e-09
0, 23, 3, 9.830348979278369e-09
0, 23, 4, 1.832125384737537e-08
0, 23, 5, 6.191304358083016e-09
0, 23, 6, 1.498249879716695e-08
0, 23, 7, 3.309889251568165e-08
0, 23, 8, 5.337755570877789e-09
0, 23, 9, 9.792073818459812e-09
0, 23, 10, 1.491533652142607e-08
0, 23, 11, 2.049744907139939e-08
0, 23, 12, 1.025195839332582e-08
0, 23, 13, 1.598563592608571e-08
0, 23, 14, 3.436059259342983e-08
0, 23, 15, 1.551681982903119e-08
0, 23, 16, 1.167697583071003e-08
0, 23, 17, 2.418920352909026e-08
0, 23, 18, 5.057298579913549e-09
0, 23, 19, 6.226374527074086e-09
0, 24, 0, 2.569632684412682e-08
0, 24, 1, 2.640570784251395e-08
0, 24, 2, 2.534618914751263e-08
0, 24, 3, 1.467292687351573e-08
0, 24, 4, 1.868089505308035e-08
0, 24, 5, 1.527432402781415e-08
0, 24, 6, 5.173909745082028e-09
0, 24, 7, 2.394724063492504e-08
0, 24, 8, 3.195145481527106e-08
0, 24, 9, 1.143114047863492e-08
0, 24, 10, 2.124341236253713e-08
0, 24, 11, 1.717476649787386e-08
0, 24, 12, 2.661108133850121e-08
0, 24, 13, 1.012942263400873e-08
0, 24, 14, 1.101364244249226e-08
0, 24, 15, 2.200073190294916e-08
0, 24, 16, 7.338503138498709e-09
0, 24, 17, 2.866168991033646e-08
0, 24, 18, 1.96541680708151e-08
0, 24, 19, 2.156333422931311e-08
0, 25, 0, 1.80315034015166e-08
0, 25, 1, 2.419820788190918e-08
0, 25, 2, 2.240652996476911e-08
0, 25, 3, 7.462346296449596e-09
0, 25, 4, 1.249139636172458e-08
0, 25, 5, 2.497112205901431e-08
0, 25, 6, 2.76077507521677e-08
0, 25, 7, 1.811455696554276e-08
0, 25, 8, 2.253179332001309e-08
0, 25, 9, 4.201592407326871e-09
0, 25, 10, 1.309927544212997e-08
0, 25, 11, 2.23829772494355e-08
0, 25, 12, 3.225853717481186e-08
0, 25, 13, 1.653187275962864e-08
0, 25, 14, 1.445308583924998e-08
0, 25, 15, 1.536527527434828e-08
0, 25, 16, 2.373205276740009e-08
0, 25, 17, 8.308015608804453e-09
0, 25, 18, 2.30195897898966e-08
0, 25, 19, 1.161974250152298e-08
0, 26, 0, 2.49740885749361e-08
0, 26, 1, 3.928907688077743e-08
0, 26, 2, 1.810083460895839e-08
0, 26, 3, 3.014402238932234e-08
0, 26, 4, 2.063093162973928e-08
0, 26, 5, 2.489644224112908e-08
0, 26, 6, 7.433728299588438e-09
0, 26, 7, 3.353721567123102e-08
0, 26, 8, 1.001535743228033e-08
0, 26, 9, 1.73363030597784e-08
0, 26, 10, 3.540698756410166e-08
0, 26, 11, 6.691316389861868e-09
0, 26, 12, 1.909082669726558e-08
0, 26, 13, 1.633566171221901e-08
0, 26, 14, 1.242686753499811e-08
0, 26, 15, 6.38034780564567e-09
0, 26, 16, 1.013956119066961e-08
0, 26, 17, 1.39095881479534e-08
0, 26, 18, 1.693086026932633e-08
0, 26, 19, 1.732770193996203e-08
0, 27, 0, 1.621268808094101e-08
0, 27, 1, 1.540388794296632e-08
0, 27, 2, 2.114317609880345e-08
0, 27, 3, 2.483848504652997e-08
0, 27, 4, 3.69956332235688e-08
0, 27, 5, 1.282693862236783e-08
0, 27, 6, 8.827621300611099e-09
0, 27, 7, 3.246502089382375e-08
0, 27, 8, 1.023131712685199e-08
0, 27, 9, 9.483514418207051e-09
0, 27, 10, 1.766446899864604e-08
0, 27, 11, 1.889400103038952e-08
0, 27, 12, 2.404696530788897e-08
0, 27, 13, 5.113746759377591e-09
0, 27, 14, 1.956805739666834e-08
0, 27, 15, 2.656718223192911e-08
0, 27, 16, 2.481738192727789e-08
0, 27, 17, 7.280570368806139e-09
0, 27, 18, 8.770601134244771e-09
0, 27, 19, 1.094962520653553e-08
0, 28, 0, 1.034270269428816e-08
0, 28, 1, 2.069354465561446e-08
0, 28, 2, 2.489143824391249e-08
0, 28, 3, 1.601142685103696e-08
0, 28, 4, 2.857730407868075e-08
0, 28, 5, 3.867190301320989e-08
0, 28, 6, 2.079805305754689e-08
0, 28, 7, 2.049113589919216e-08
0, 28, 8, 2.161552004054101e-08
0, 28, 9, 2.965528089760028e-08
0, 28, 10, 9.745493301238639e-09
0, 28, 11, 1.94024138977511e-08
0, 28, 12, 1.562841234203916e-08
0, 28, 13, 1.60371946833493e-08
0, 28, 14, 7.450319472468436e-09
0, 28, 15, 1.536531435419874e-08
0, 28, 16, 8.713844756869094e-09
0, 28, 17, 1.19931637954096e-08
0, 28, 18, 1.006741356945895e-08
0, 28, 19, 1.052806375412274e-08
0, 29, 0, 1.645224045887517e-08
0, 29, 1, 2.041217506132398e-08
0, 29, 2, 3.408194260146047e-08
0, 29, 3, 6.169862842853036e-09
0, 29, 4, 1.600907495458159e-08
0, 29, 5, 2.044245306365156e-08
0, 29, 6, 2.13562270090506e-08
0, 29, 7, 1.387426173948825e-08
0, 29, 8, 1.299039364965893e-08
0, 29, 9, 2.62927226657439e-08
0, 29, 10, 1.806091276534971e-08
0, 29, 11, 1.471277943920768e-08
0, 29, 12, 1.193400489540863e-08
0, 29, 13, 2.052957626119678e-08
0, 29, 14, 1.459654175306468e-08
0, 29, 15, 8.927768746502807e-09
0, 29, 16, 7.567845905498416e-09
0, 29, 17, 1.821964978887536e-08
0, 29, 18, 1.356275980413102e-08
0, 29, 19, 5.8206786057724e-09
0, 30, 0, 3.95694677024494e-08
0, 30, 1, 3.033617446135395e-08
0, 30, 2, 2.196921400354768e-08
0, 30, 3, 2.618553374134081e-08
0, 30, 4, 1.781550196255921e-08
0, 30, 5, 2.192375170295691e-08
0, 30, 6, 1.899707946506624e-08
0, 30, 7, 1.492627177412942e-08
0, 30, 8, 4.457012536818183e-08
0, 30, 9, 2.961837353154806e-08
0, 30, 10, 1.839364571765145e-08
0, 30, 11, 1.079196731978982e-08
0, 30, 12, 9.108365617294112e-09
0, 30, 13, 6.529070173399987e-09
0, 30, 14, 1.448633746292671e-08
0, 30, 15, 1.634701085606594e-08
0, 30, 16, 1.166304386401862e-08
0, 30, 17, 1.156449247474711e-08
0, 30, 18, 6.103723304562436e-09
0, 30, 19, 1.072686028891212e-08
0, 31, 0, 1.680817973692683e-08
0, 31, 1, 1.664023407954573e-08
0, 31, 2, 3.727949060561286e-09
0, 31, 3, 2.126409803793194e-08
0, 31, 4, 1.440597152679857e-08
0, 31, 5, 4.030371414387446e-08
0, 31, 6, 4.050664514920754e-08
0, 31, 7, 2.509046304055573e-08
0, 31, 8, 1.890107625968085e-08
0, 31, 9, 1.452049858130522e-08
0, 31, 10, 2.702388535169575e-08
0, 31, 11, 1.910338198740646e-08
0, 31, 12, 1.762427537244093e-08
0, 31, 13, 1.44824552350542e-08
0, 31, 14, 5.784467571601226e-09
0, 31, 15, 1.870047228180738e-08
0, 31, 16, 1.466977117559054e-08
0, 31, 17, 1.070755928367362e-08
0, 31, 18, 6.707310262754618e-08
0, 31, 19, 2.358468265128977e-08
0, 32, 0, 4.737853842584627e-08
0, 32, 1, 2.608697258210668e-08
0, 32, 2, 1.19954224331309e-08
0, 32, 3, 1.379556202607546e-08
0, 32, 4, 8.753371361081008e-09
0, 32, 5, 2.061014292564778e-08
0, 32, 6, 6.641074801194691e-09
0, 32, 7, 4.203863568363886e-08
0, 32, 8, 1.682192163343643e-08
0, 32, 9, 1.943308269858335e-08
0, 32, 10, 2.544354948952332e-08
0, 32, 11, 1.474151556379866e-08
0, 32, 12, 2.283984734674505e-08
0, 32, 13, 2.416526001525199e-08
0, 32, 14, 1.885337930218611e-08
0, 32, 15, 1.638880497978334e-08
0, 32, 16, 1.059436005590442e-08
0, 32, 17, 2.184310510244813e-08
0, 32, 18, 1.345051714451984e-08
0, 32, 19, 4.27876827302498e-08
0, 33, 0, 1.372937852295308e-08
0, 33, 1, 6.066654290037832e-09
0, 33, 2, 2.233404394758054e-08
0, 33, 3, 1.05837507646811e-08
0, 33, 4, 1.014800243837044e-08
0, 33, 5, 2.009931776569829e-08
0, 33, 6, 5.464698471513429e-09
0, 33, 7, 1.742496991141707e-08
0, 33, 8, 1.219093626048107e-08
0, 33, 9, 3.995801023393142e-08
0, 33, 10, 9.288791957828835e-09
0, 33, 11, 2.995620462797888e-08
0, 33, 12, 2.22214833200951e-08
0, 33, 13, 7.978595562008195e-09
0, 33, 14, 2.214565242297795e-08
0, 33, 15, 9.958630364792498e-09
0, 33, 16, 2.720334713046668e-08
0, 33, 17, 2.282861544244952e-08
0, 33, 18, 2.701677104255396e-08
0, 33, 19, 1.390597503814206e-08
0, 34, 0, 2.181293545788776e-08
0, 34, 1, 2.240013863286094e-08
0, 34, 2, 1.659234172279866e-08
0, 34, 3, 4.71687009451216e-08
0, 34, 4, 1.90720719217552e-08
0, 34, 5, 1.450445097361808e-08
0, 34, 6, 1.025674123411591e-08
0, 34, 7, 1.666805182765074e-08
0, 34, 8, 8.769755588389216e-09
0, 34, 9, 1.929005222223168e-08
0, 34, 10, 1.416753914185165e-08
0, 34, 11, 3.028688411177427e-08
0, 34, 12, 1.317302444903135e-08
0, 34, 13, 1.031333507484078e-08
0, 34, 14, 6.204752267535696e-09
0, 34, 15, 5.761505939005929e-09
0, 34, 16, 1.461715726236434e-08
0, 34, 17, 8.691666053550762e-09
0, 34, 18, 1.136153837677512e-08
0, 34, 19, 3.796050762616687e-08
0, 35, 0, 2.927075648528898e-08
0, 35, 1, 2.246882324641319e-08
0, 35, 2, 1.437175178864436e-08
0, 35, 3, 1.419906237032365e-08
0, 35, 4, 2.873235693812148e-08
0, 35, 5, 1.024335194443893e-08
0, 35, 6, 1.289196482900934e-08
0, 35, 7, 1.522343673343585e-08
0, 35, 8, 2.55878429555878e-08
0, 35, 9, 1.252758341507842e-08
0, 35, 10, 2.038658841740926e-08
0, 35, 11, 1.495462420564309e-08
0, 35, 12, 1.633146062829383e-08
0, 35, 13, 1.492047019269194e-08
0, 35, 14, 3.656281677422157e-08
0, 35, 15, 3.781475754749408e-08
0, 35, 16, 2.586384439950962e-08
0, 35, 17, 4.352688431907836e-09
0, 35, 18, 1.370238766895682e-08
0, 35, 19, 5.667945224274717e-09
0, 36, 0, 8.650892446837588e-09
0, 36, 1, 1.46600986905554e-09
0, 36, 2, 2.514377150930613e-08
0, 36, 3, 1.094419488367748e-08
0, 36, 4, 2.930190312611103e-08
0, 36, 5, 1.259813675602572e-08
0, 36, 6, 9.392241651084987e-09
0, 36, 7, 1.530935378468712e-08
0, 36, 8, 3.39480870081843e-08
0, 36, 9, 1.399835447557507e-08
0, 36, 10, 9.371448506101387e-09
0, 36, 11, 2.227632478479791e-08
0, 36, 12, 1.465370669251342e-08
0, 36, 13, 5.560680360616743e-09
0, 36, 14, 7.965629045258993e-09
0, 36, 15, 2.288096823122032e-08
0, 36, 16, 2.234329521400014e-08
0, 36, 17, 1.637540059107323e-08
0, 36, 18, 3.870233022951197e-09
0, 36, 19, 2.041960378562635e-08
0, 37, 0, 1.548161598918796e-08
0, 37, 1, 1.941109672998209e-08
0, 37, 2, 1.138866334571276e-08
0, 37, 3, 2.226846262942672e-08
0, 37, 4, 1.944895622330023e-08
0, 37, 5, 7.826951531342274e-09
0, 37, 6, 3.189293451555386e-08
0, 37, 7, 6.117162776320129e-09
0, 37, 8, 8.200479406639261e-09
0, 37, 9, 2.870134530041923e-08
0, 37, 10, 2.413606559059644e-08
0, 37, 11, 5.970171468305807e-09
0, 37, 12, 9.931368616378222e-09
0, 37, 13, 8.974741838585487e-09
0, 37, 14, 1.918362357855585e-08
0, 37, 15, 2.320351910611862e-08
0, 37, 16, 8.438998833071309e-09
0, 37, 17, 1.247508940593889e-08
0, 37, 18, 4.391399688330466e-09
0, 37, 19, 2.535567666939187e-08
0, 38, 0, 2.387657893621054e-08
0, 38, 1, 2.320213887685441e-08
0, 38, 2, 2.667493781416397e-08
0, 38, 3, 2.920586616994569e-08
0, 38, 4, 2.636351581486451e-08
0, 38, 5, 6.049166501043146e-09
0, 38, 6, 6.258420892635286e-09
0, 38, 7, 2.761172623877428e-08
0, 38, 8, 1.535079796610717e-08
0, 38, 9, 1.0372496639377e-08
0, 38, 10, 9.434299563793047e-09
0, 38, 11, 1.768305679661353e-08
0, 38, 12, 3.480813148826201e-08
0, 38, 13, 2.913112417957109e-08
0, 38, 14, 1.110870506693118e-08
0, 38, 15, 9.761773611671742e-09
0, 38, 16, 5.79046943727235e-09
0, 38, 17, 3.400363768335524e-09
0, 38, 18, 1.023638152020112e-08
0, 38, 19, 1.707276875428931e-09
0, 39, 0, 1.413596173449605e-08
0, 39, 1, 1.958996520556866e-08
0, 39, 2, 2.086061812178741e-08
0, 39, 3, 6.742870795051203e-08
0, 39, 4, 2.180446045940698e-08
0, 39, 5, 1.456692544365978e-08
0, 39, 6, 2.718047298344572e-08
0, 39, 7, 6.629333526575465e-09
0, 39, 8, 1.071859578871681e-08
0, 39, 9, 2.703728796404903e-08
0, 39, 10, 1.339621125140411e-08
0, 39, 11, 1.508614744238912e-08
0, 39, 12, 9.336422301942093e-09
0, 39, 13, 1.079108535861906e-08
0, 39, 14, 1.280444106299683e-08
0, 39, 15, 1.349320566390588e-08
0, 39, 16, 9.02709995642681e-09
0, 39, 17, 2.417967337464688e-08
0, 39, 18, 3.044513086081224e-09
0, 39, 19, 7.480742247878425e-09
0, 40, 0, 2.079856109560296e-08
0, 40, 1, 5.958003868045125e-09
0, 40, 2, 1.309470309962535e-08
0, 40, 3, 9.425307645472003e-09
0, 40, 4, 8.814821761404801e-09
0, 40, 5, 2.576561541900446e-08
0, 40, 6, 7.990091255294374e-09
0, 40, 7, 3.59938283622796e-08
0, 40, 8, 1.330975507585208e-08
0, 40, 9, 1.461127574486909e-08
0, 40, 10, 3.398996284431632e-08
0, 40, 11, 5.181094220318982e-09
0, 40, 12, 1.016746686843817e-08
0, 40, 13, 6.701118326901678e-09
0, 40, 14, 8.962519615351994e-09
0, 40, 15, 1.10172964085109e-08
0, 40, 16, 1.385750181270851e-08
0, 40, 17, 1.364331936315466e-08
0, 40, 18, 2.981352276165694e-09
0, 40, 19, 3.714863527903844e-09
0, 41, 0, 8.80928663349323e-09
0, 41, 1, 1.021935958078757e-08
0, 41, 2, 3.696640105133042e-09
0, 41, 3, 1.419584005901697e-08
0, 41, 4, 6.793958284845303e-09
0, 41, 5, 5.566319405403419e-09
0, 41, 6, 1.600135313140072e-08
0, 41, 7, 1.91540365790388e-08
0, 41, 8, 8.204882995244134e-09
0, 41, 9, 9.503692943724218e-09
0, 41, 10, 5.843187711462861e-09
0, 41, 11, 1.886418354857256e-09
0, 41, 12, 1.189155263148223e-08
0, 41, 13, 7.668192303356136e-09
0, 41, 14, 4.900873040725173e-09
0, 41, 15, 2.385972130980463e-08
0, 41, 16, 1.923018722038705e-08
0, 41, 17, 4.9329882401139e-09
0, 41, 18, 1.002159866203556e-08
0, 41, 19, 3.738567144750959e-08
0, 42, 0, 1.534665017288717e-08
0, 42, 1, 2.215058003685044e-08
0, 42, 2, 1.423570861192047e-08
0, 42, 3, 1.566511720341168e-08
0, 42, 4, 5.403352432153952e-09
0, 42, 5, 2.553565181528938e-08
0, 42, 6, 1.581753572565958e-08
0, 42, 7, 1.049899367444596e-08
0, 42, 8, 4.073556159056579e-09
0, 42, 9, 3.105368406863818e-09
0, 42, 10, 1.867744359174139e-08
0, 42, 11, 1.90092102059225e-08
0, 42, 12, 1.246959957512672e-08
0, 42, 13, 6.411787989435425e-09
0, 42, 14, 6.05669541187126e-08
0, 42, 15, 1.256693060724956e-08
0, 42, 16, 3.00492430937993e-08
0, 42, 17, 1.16575380459949e-08
0, 42, 18, 3.287050409639392e-09
0, 42, 19, 7.766831622291193e-09
0, 43, 0, 2.089451278664001e-08
0, 43, 1, 7.162320070364103e-09
0, 43, 2, 2.385947261984711e-08
0, 43, 3, 1.79246928411203e-08
0, 43, 4, 7.778062638408301e-09
0, 43, 5, 2.579798419333201e-08
0, 43, 6, 2.40080044733304e-09
0, 43, 7, 1.239563562904777e-08
0, 43, 8, 1.540072069872167e-08
0, 43, 9, 1.798658288976185e-08
0, 43, 10, 1.625734036281301e-08
0, 43, 11, 1.708625241292339e-08
0, 43, 12, 1.128837201491706e-08
0, 43, 13, 1.964881146676589e-09
0, 43, 14, 3.667019798925253e-09
0, 43, 15, 6.687662867932431e-09
0, 43, 16, 6.522529627517315e-09
0, 43, 17, 1.747975097998733e-08
0, 43, 18, 2.931538789496813e-09
0, 43, 19, 1.285234940695545e-08
0, 44, 0, 1.072061639462163e-08
0, 44, 1, 7.626068665445018e-09
0, 44, 2, 9.572376669098048e-09
0, 44, 3, 7.112376909645945e-09
0, 44, 4, 2.855033320869893e-09
0, 44, 5, 4.483133420052354e-09
0, 44, 6, 1.5486216753402e-08
0, 44, 7, 7.663397028068175e-09
0, 44, 8, 7.138532431838485e-09
0, 44, 9, 8.182279742641185e-09
0, 44, 10, 1.841988783723991e-08
0, 44, 11, 8.464360767845847e-09
0, 44, 12, 1.252757009240213e-08
0, 44, 13, 1.719539355349298e-08
0, 44, 14, 1.011657868588145e-08
0, 44, 15, 2.914618102423105e-09
0, 44, 16, 3.128171943700409e-09
0, 44, 17, 1.016804596076781e-08
0, 44, 18, 1.458217457894762e-08
0, 44, 19, 5.253859569620545e-10
0, 45, 0, 4.130410236058424e-09
0, 45, 1, 1.805217308969986e-08
0, 45, 2, 2.116092190362906e-08
0, 45, 3, 8.756344094251745e-09
0, 45, 4, 1.442650088279152e-08
0, 45, 5, 2.552452471604738e-08
0, 45, 6, 1.536268001700591e-09
0, 45, 7, 6.887677539424431e-09
0, 45, 8, 1.197851684509033e-08
0, 45, 9, 2.322180669978025e-09
0, 45, 10, 2.406178545300008e-08
0, 45, 11, 3.791622571469588e-09
0, 45, 12, 7.581454908311969e-11
0, 45, 13, 1.01441548494563e-08
0, 45, 14, 3.974496731729005e-09
0, 45, 15, 8.385509175923289e-09
0, 45, 16, 7.894279008269223e-09
0, 45, 17, 4.946747012013475e-09
0, 45, 18, 6.660287432680434e-09
0, 45, 19, 1.045691444545582e-08
0, 46, 0, 1.178616848562797e-08
0, 46, 1, 1.11975504424322e-08
0, 46, 2, 3.633625400567553e-09
0, 46, 3, 2.426066281202566e-08
0, 46, 4, 1.19832090916816e-08
0, 46, 5, 1.971476315532072e-08
0, 46, 6, 1.481790068424971e-08
