# TOPAS Version: 3.7
# Parameter File: RunWaterDose.txt
# Results for scorer TestingDose1
# Scored in component: Phantom
# X in 50 bins of 0.2 cm
# Y in 50 bins of 0.2 cm
# Z in 50 bins of 0.2 cm
# DoseToMedium ( Gy ) : Sum   
0, 0, 0, 2.000129617485413e-09
0, 0, 1, 1.738891586278157e-09
0, 0, 2, 1.354729994851311e-09
0, 0, 3, 3.84795129093618e-09
0, 0, 4, 7.027441739637652e-09
0, 0, 5, 2.21207363537701e-09
0, 0, 6, 3.784771163140022e-09
0, 0, 7, 4.426554234271407e-09
0, 0, 8, 3.10716741225292e-09
0, 0, 9, 3.442778062634488e-09
0, 0, 10, 7.874083607362081e-09
0, 0, 11, 1.849588815439063e-09
0, 0, 12, 4.545829934698986e-09
0, 0, 13, 2.852233560446393e-09
0, 0, 14, 2.812620580883163e-09
0, 0, 15, 1.389375947624671e-09
0, 0, 16, 1.223041889986121e-09
0, 0, 17, 1.832051621519781e-09
0, 0, 18, 2.855239822352473e-09
0, 0, 19, 3.400941306352934e-09
0, 0, 20, 3.191900521670732e-09
0, 0, 21, 2.121284481404473e-09
0, 0, 22, 3.317514263301291e-09
0, 0, 23, 2.282546818221931e-09
0, 0, 24, 2.585941238919531e-09
0, 0, 25, 1.80330950172447e-09
0, 0, 26, 2.955552025341035e-09
0, 0, 27, 5.91326543286641e-10
0, 0, 28, 1.530359727830444e-09
0, 0, 29, 4.367946893069075e-09
0, 0, 30, 1.590691467434624e-09
0, 0, 31, 2.7577449213112e-09
0, 0, 32, 4.124060204446778e-09
0, 0, 33, 1.430249141343154e-09
0, 0, 34, 6.160273624544743e-09
0, 0, 35, 5.989191809163685e-09
0, 0, 36, 5.007978032267602e-09
0, 0, 37, 1.853769138193684e-09
0, 0, 38, 4.628191163646989e-09
0, 0, 39, 1.397710058803625e-09
0, 0, 40, 1.770951940649468e-09
0, 0, 41, 3.287633054682715e-09
0, 0, 42, 3.269888360080131e-09
0, 0, 43, 3.407751858475194e-09
0, 0, 44, 3.280883564826809e-09
0, 0, 45, 3.581882124237268e-09
0, 0, 46, 3.154854821829645e-09
0, 0, 47, 1.959180595534349e-09
0, 0, 48, 1.506928803962637e-09
0, 0, 49, 2.59690491333231e-09
0, 1, 0, 2.05699102195922e-09
0, 1, 1, 3.018041816460482e-09
0, 1, 2, 2.551488353930154e-09
0, 1, 3, 2.673531840358123e-09
0, 1, 4, 2.029461043662195e-09
0, 1, 5, 1.53096368915584e-09
0, 1, 6, 2.681928013004153e-09
0, 1, 7, 1.162697937928669e-09
0, 1, 8, 1.507000413347725e-09
0, 1, 9, 2.506777008193239e-09
0, 1, 10, 3.235078205321429e-09
0, 1, 11, 9.355221042284256e-10
0, 1, 12, 2.416367772539729e-09
0, 1, 13, 2.970215629005679e-09
0, 1, 14, 3.766007061756227e-09
0, 1, 15, 1.508271618710921e-09
0, 1, 16, 6.622289827618033e-09
0, 1, 17, 3.635338918783759e-09
0, 1, 18, 1.990479336910767e-09
0, 1, 19, 2.022835454695837e-09
0, 1, 20, 2.320109437903284e-09
0, 1, 21, 3.530987280342401e-09
0, 1, 22, 2.088691886115157e-09
0, 1, 23, 1.962919160547472e-09
0, 1, 24, 3.310177909554568e-09
0, 1, 25, 5.483039355880237e-09
0, 1, 26, 3.849116581022827e-09
0, 1, 27, 5.559894766804518e-09
0, 1, 28, 1.982562558566769e-09
0, 1, 29, 2.759771522420351e-09
0, 1, 30, 3.098537648682509e-09
0, 1, 31, 3.460809194777426e-09
0, 1, 32, 4.38854463880034e-09
0, 1, 33, 4.072090220574864e-09
0, 1, 34, 2.884893879340211e-09
0, 1, 35, 1.723491571681279e-09
0, 1, 36, 3.453052954682789e-09
0, 1, 37, 2.586858505182477e-09
0, 1, 38, 1.705282803854402e-09
0, 1, 39, 4.537648479185918e-09
0, 1, 40, 2.97767677182037e-09
0, 1, 41, 2.411013833025777e-09
0, 1, 42, 3.444028839894031e-09
0, 1, 43, 2.230424067661829e-09
0, 1, 44, 9.491302188635586e-10
0, 1, 45, 3.805453729910369e-09
0, 1, 46, 8.518044047889362e-10
0, 1, 47, 4.373366557786085e-09
0, 1, 48, 1.841289676285385e-09
0, 1, 49, 2.422786415934297e-09
0, 2, 0, 2.904651630331045e-09
0, 2, 1, 1.824459139321277e-09
0, 2, 2, 1.098400037591318e-09
0, 2, 3, 2.146966160410102e-09
0, 2, 4, 4.40086767028447e-09
0, 2, 5, 3.34411387470368e-09
0, 2, 6, 3.392915948197128e-09
0, 2, 7, 3.224294164994035e-09
0, 2, 8, 4.0881871221643e-09
0, 2, 9, 2.12730677517925e-09
0, 2, 10, 3.34226224474321e-09
0, 2, 11, 3.804186299305456e-09
0, 2, 12, 2.338539140112061e-09
0, 2, 13, 4.084468763210225e-09
0, 2, 14, 2.060145387616785e-09
0, 2, 15, 2.446889135754304e-09
0, 2, 16, 4.460185110133352e-09
0, 2, 17, 3.527877545650426e-09
0, 2, 18, 5.354087839748445e-09
0, 2, 19, 5.24608401164528e-09
0, 2, 20, 4.696246058699671e-09
0, 2, 21, 1.89631377267574e-09
0, 2, 22, 3.859879527112753e-09
0, 2, 23, 3.311702467811983e-09
0, 2, 24, 2.680795141429826e-09
0, 2, 25, 6.672893793080448e-09
0, 2, 26, 5.627280419417957e-09
0, 2, 27, 5.512081902026011e-09
0, 2, 28, 4.107784334905773e-09
0, 2, 29, 2.626842965369747e-09
0, 2, 30, 2.532874354699288e-09
0, 2, 31, 2.879792848631268e-09
0, 2, 32, 2.457427816793256e-09
0, 2, 33, 4.066723402473826e-09
0, 2, 34, 3.129745351770907e-09
0, 2, 35, 1.580711672666268e-09
0, 2, 36, 5.54122969731452e-09
0, 2, 37, 4.875516879110364e-09
0, 2, 38, 4.820623455970008e-09
0, 2, 39, 3.885451960172759e-09
0, 2, 40, 2.566890922039988e-09
0, 2, 41, 3.836885920094346e-09
0, 2, 42, 8.94572083076639e-10
0, 2, 43, 6.329054613729568e-09
0, 2, 44, 4.171340606262675e-09
0, 2, 45, 2.946409338733247e-09
0, 2, 46, 2.245454711058414e-09
0, 2, 47, 4.588242674685716e-09
0, 2, 48, 4.989107349473443e-09
0, 2, 49, 1.766070290010191e-09
0, 3, 0, 2.010800193019691e-09
0, 3, 1, 2.359047401867542e-09
0, 3, 2, 2.025128953420108e-09
0, 3, 3, 5.290306859251359e-09
0, 3, 4, 1.876087951657723e-09
0, 3, 5, 2.032671808649411e-09
0, 3, 6, 4.141102127874774e-09
0, 3, 7, 4.996127511702753e-09
0, 3, 8, 4.661801611405281e-09
0, 3, 9, 2.842986068785081e-09
0, 3, 10, 3.709895279868647e-09
0, 3, 11, 1.701731977554743e-09
0, 3, 12, 1.768348356634419e-09
0, 3, 13, 5.451001872103234e-09
0, 3, 14, 5.120170065708862e-09
0, 3, 15, 4.546775844715967e-09
0, 3, 16, 6.536433616588511e-09
0, 3, 17, 4.460820601792648e-09
0, 3, 18, 1.781975123016366e-09
0, 3, 19, 3.473193510572514e-09
0, 3, 20, 6.556180043304494e-09
0, 3, 21, 5.504289024571563e-09
0, 3, 22, 4.412235021789002e-09
0, 3, 23, 4.682171983461103e-09
0, 3, 24, 2.784863228910694e-09
0, 3, 25, 7.200169349630414e-09
0, 3, 26, 3.470927323334649e-09
0, 3, 27, 2.751620931107368e-09
0, 3, 28, 5.858540319536587e-09
0, 3, 29, 4.527442865054354e-09
0, 3, 30, 4.730427605181831e-09
0, 3, 31, 6.368205074380739e-09
0, 3, 32, 5.203666830766451e-09
0, 3, 33, 3.624004873969966e-09
0, 3, 34, 2.699324541666215e-09
0, 3, 35, 3.364842626751852e-09
0, 3, 36, 2.031938173274739e-09
0, 3, 37, 2.418199196441151e-09
0, 3, 38, 3.932665304517968e-09
0, 3, 39, 3.064958953302721e-09
0, 3, 40, 1.969931107126399e-09
0, 3, 41, 2.360243334109668e-09
0, 3, 42, 2.086165240555715e-09
0, 3, 43, 4.444647316859118e-09
0, 3, 44, 1.915968717014493e-09
0, 3, 45, 3.002167625609786e-09
0, 3, 46, 2.115678521263931e-09
0, 3, 47, 2.20970264308562e-09
0, 3, 48, 3.321572128456296e-09
0, 3, 49, 2.050061675973325e-09
0, 4, 0, 1.110091241152134e-09
0, 4, 1, 4.375489304209168e-09
0, 4, 2, 4.514610463246527e-09
0, 4, 3, 5.343193443252403e-09
0, 4, 4, 2.202622750857586e-09
0, 4, 5, 2.419564104627625e-09
0, 4, 6, 2.268089938084472e-09
0, 4, 7, 2.55003240745566e-09
0, 4, 8, 2.078619720791153e-09
0, 4, 9, 4.655647423135179e-09
0, 4, 10, 3.311110274850648e-09
0, 4, 11, 3.226632738773105e-09
0, 4, 12, 2.916898944604895e-09
0, 4, 13, 4.628219141267209e-09
0, 4, 14, 4.22209112116434e-09
0, 4, 15, 4.259129937622674e-09
0, 4, 16, 6.267986130126246e-09
0, 4, 17, 2.306066448909405e-09
0, 4, 18, 4.23100576796287e-09
0, 4, 19, 5.003342629095187e-09
0, 4, 20, 4.46996484271267e-09
0, 4, 21, 3.8774512489681e-09
0, 4, 22, 3.126304104483779e-09
0, 4, 23, 5.725028451308845e-09
0, 4, 24, 3.281971583390941e-09
0, 4, 25, 5.747308406967022e-09
0, 4, 26, 2.931561438046515e-09
0, 4, 27, 3.940942239211154e-09
0, 4, 28, 4.338542414217272e-09
0, 4, 29, 6.215297609912795e-09
0, 4, 30, 4.818415888507843e-09
0, 4, 31, 2.683139488368624e-09
0, 4, 32, 2.813580257665649e-09
0, 4, 33, 4.565571032344451e-09
0, 4, 34, 8.677095486575581e-09
0, 4, 35, 4.691888211283413e-09
0, 4, 36, 2.593240067128022e-09
0, 4, 37, 4.342762593978478e-09
0, 4, 38, 5.873121100563594e-09
0, 4, 39, 4.44046666103759e-09
0, 4, 40, 4.888077498321763e-09
0, 4, 41, 3.223987965483843e-09
0, 4, 42, 2.925821362964598e-09
0, 4, 43, 2.934466669657354e-09
0, 4, 44, 4.400583453190166e-09
0, 4, 45, 3.123452385622727e-09
0, 4, 46, 2.656416642210502e-09
0, 4, 47, 2.529345843882425e-09
0, 4, 48, 1.978406105607178e-09
0, 4, 49, 2.121874009830549e-09
0, 5, 0, 4.091643024395353e-09
0, 5, 1, 3.280739457878212e-09
0, 5, 2, 1.716235709103842e-09
0, 5, 3, 2.403383048132923e-09
0, 5, 4, 4.637600525825292e-09
0, 5, 5, 6.561807097682504e-09
0, 5, 6, 2.998115755659114e-09
0, 5, 7, 5.650300671788955e-09
0, 5, 8, 5.046734141700426e-09
0, 5, 9, 1.877912936265602e-09
0, 5, 10, 5.443235640001376e-09
0, 5, 11, 3.489049049676396e-09
0, 5, 12, 4.651209639661147e-09
0, 5, 13, 1.437176044838395e-09
0, 5, 14, 2.793846265447542e-09
0, 5, 15, 6.815583208918952e-09
0, 5, 16, 3.439770468460779e-09
0, 5, 17, 4.097818973036738e-09
0, 5, 18, 3.076267240942343e-09
0, 5, 19, 2.031079082698284e-09
0, 5, 20, 4.021148303223754e-09
0, 5, 21, 8.933915829345551e-09
0, 5, 22, 4.358769345458313e-09
0, 5, 23, 4.719948432096999e-09
0, 5, 24, 4.767331862609581e-09
0, 5, 25, 7.507446220245129e-09
0, 5, 26, 3.388705316353935e-09
0, 5, 27, 3.341179555249596e-09
0, 5, 28, 2.773549168111344e-09
0, 5, 29, 5.245676781839848e-09
0, 5, 30, 2.321251191261808e-09
0, 5, 31, 4.092915784070783e-09
0, 5, 32, 3.783345192687193e-09
0, 5, 33, 1.817391237501909e-09
0, 5, 34, 7.054273165607583e-09
0, 5, 35, 3.00137248387955e-09
0, 5, 36, 4.970299727347083e-09
0, 5, 37, 3.856989838624258e-09
0, 5, 38, 2.893763895173151e-09
0, 5, 39, 6.590886503232696e-09
0, 5, 40, 4.632675576488055e-09
0, 5, 41, 3.221054756252784e-09
0, 5, 42, 4.736691927575976e-09
0, 5, 43, 3.63335161956968e-09
0, 5, 44, 1.993122333843189e-09
0, 5, 45, 5.353885335068753e-09
0, 5, 46, 3.270153481338411e-09
0, 5, 47, 2.568398160818219e-09
0, 5, 48, 5.174039419131304e-09
0, 5, 49, 1.840277152886927e-09
0, 6, 0, 2.744372507024195e-09
0, 6, 1, 2.816887390011402e-09
0, 6, 2, 4.103348327788581e-09
0, 6, 3, 1.421534889800569e-09
0, 6, 4, 3.683032767654026e-09
0, 6, 5, 3.504598389270086e-09
0, 6, 6, 2.337630089499498e-09
0, 6, 7, 4.298555289494743e-09
0, 6, 8, 3.768445999696723e-09
0, 6, 9, 4.305182432773336e-09
0, 6, 10, 3.28580962438707e-09
0, 6, 11, 9.007695034313201e-09
0, 6, 12, 2.598463444414278e-09
0, 6, 13, 6.654037765230214e-09
0, 6, 14, 4.977217749058127e-09
0, 6, 15, 5.033591321534914e-09
0, 6, 16, 8.185425670603763e-09
0, 6, 17, 5.827645033207318e-09
0, 6, 18, 4.310518608718894e-09
0, 6, 19, 5.954918336215087e-09
0, 6, 20, 5.743158393300973e-09
0, 6, 21, 2.665541787294501e-09
0, 6, 22, 6.09544947849372e-09
0, 6, 23, 5.543655756667931e-09
0, 6, 24, 3.421154470828469e-09
0, 6, 25, 5.059513696892282e-09
0, 6, 26, 4.998016223112245e-09
0, 6, 27, 6.642006944446166e-09
0, 6, 28, 4.762182648221369e-09
0, 6, 29, 4.45385417435773e-09
0, 6, 30, 6.391230655822255e-09
0, 6, 31, 4.185681135027153e-09
0, 6, 32, 5.978096684344791e-09
0, 6, 33, 3.505753021215696e-09
0, 6, 34, 4.514741913652642e-09
0, 6, 35, 3.05744007889075e-09
0, 6, 36, 7.051146333481029e-09
0, 6, 37, 6.532801855030357e-09
0, 6, 38, 4.368470918336698e-09
0, 6, 39, 7.445931426985908e-09
0, 6, 40, 3.481283927797563e-09
0, 6, 41, 4.431833566798105e-09
0, 6, 42, 2.888769445874573e-09
0, 6, 43, 4.847795054274684e-09
0, 6, 44, 3.393707981302896e-09
0, 6, 45, 4.06096711813575e-09
0, 6, 46, 2.385741826316234e-09
0, 6, 47, 4.113762219759565e-09
0, 6, 48, 3.715219909494749e-09
0, 6, 49, 2.223345951790634e-09
0, 7, 0, 1.159780937953769e-09
0, 7, 1, 3.693956251993313e-09
0, 7, 2, 3.963006811602554e-09
0, 7, 3, 1.933839532952675e-09
0, 7, 4, 3.098840295479022e-09
0, 7, 5, 3.809243143138019e-09
0, 7, 6, 4.955441834653129e-09
0, 7, 7, 1.755082079668568e-09
0, 7, 8, 3.607127041505009e-09
0, 7, 9, 4.415226406706552e-09
0, 7, 10, 7.905543775166279e-09
0, 7, 11, 2.176183011570743e-09
0, 7, 12, 3.256886094149536e-09
0, 7, 13, 4.797002350898083e-09
0, 7, 14, 3.909939927382311e-09
0, 7, 15, 5.423637094992273e-09
0, 7, 16, 3.669210268952838e-09
0, 7, 17, 5.801001456973154e-09
0, 7, 18, 7.223300180214665e-09
0, 7, 19, 5.28701571411716e-09
0, 7, 20, 3.391791070228578e-09
0, 7, 21, 5.854705609209532e-09
0, 7, 22, 4.782768847633179e-09
0, 7, 23, 5.629959609620983e-09
0, 7, 24, 3.664386127866237e-09
0, 7, 25, 4.599189029619311e-09
0, 7, 26, 3.758042321777566e-09
0, 7, 27, 8.21303824949382e-09
0, 7, 28, 5.392703616990957e-09
0, 7, 29, 2.623132600021449e-09
0, 7, 30, 5.002466441084152e-09
0, 7, 31, 4.703923472959559e-09
0, 7, 32, 8.531328532512816e-09
0, 7, 33, 4.74360861701939e-09
0, 7, 34, 5.91767790325548e-09
0, 7, 35, 4.738385683822344e-09
0, 7, 36, 2.866298975945369e-09
0, 7, 37, 4.809881826162155e-09
0, 7, 38, 4.753762716802612e-09
0, 7, 39, 4.537211939492636e-09
0, 7, 40, 3.507470536234791e-09
0, 7, 41, 4.149333765468555e-09
0, 7, 42, 2.870140125565968e-09
0, 7, 43, 3.67544106261164e-09
0, 7, 44, 3.922130176192695e-09
0, 7, 45, 1.245416991757509e-09
0, 7, 46, 1.75924708134545e-09
0, 7, 47, 3.872629772416758e-09
0, 7, 48, 3.592644182148774e-09
0, 7, 49, 1.550754857859715e-09
0, 8, 0, 4.93618834696008e-09
0, 8, 1, 3.349388100204465e-09
0, 8, 2, 2.757744699266595e-09
0, 8, 3, 3.424870165247285e-09
0, 8, 4, 4.459050906291395e-09
0, 8, 5, 2.060696280281604e-09
0, 8, 6, 3.182877739149603e-09
0, 8, 7, 4.584386203987378e-09
0, 8, 8, 6.176678724045814e-09
0, 8, 9, 6.623303683284121e-09
0, 8, 10, 7.257620726619507e-09
0, 8, 11, 4.16566647842842e-09
0, 8, 12, 8.233807413660088e-09
0, 8, 13, 2.551829636487923e-09
0, 8, 14, 9.143141355139051e-09
0, 8, 15, 5.215184284423913e-09
0, 8, 16, 4.515284590667079e-09
0, 8, 17, 6.926565099263371e-09
0, 8, 18, 5.915734124783967e-09
0, 8, 19, 2.916285879450697e-09
0, 8, 20, 7.154148828902862e-09
0, 8, 21, 2.266706378151184e-09
0, 8, 22, 7.248759370526159e-09
0, 8, 23, 5.053419460665509e-09
0, 8, 24, 4.898900396455019e-09
0, 8, 25, 4.565221090047089e-09
0, 8, 26, 4.763207162028493e-09
0, 8, 27, 4.871807401940487e-09
0, 8, 28, 5.660230950610412e-09
0, 8, 29, 8.449756450090717e-09
0, 8, 30, 5.972972338952331e-09
0, 8, 31, 7.485313702204621e-09
0, 8, 32, 3.715979079998988e-09
0, 8, 33, 7.055149353618617e-09
0, 8, 34, 3.856246433286969e-09
0, 8, 35, 4.085752625115902e-09
0, 8, 36, 5.409325432026435e-09
0, 8, 37, 3.129300596427242e-09
0, 8, 38, 4.039802714572716e-09
0, 8, 39, 2.517080766040181e-09
0, 8, 40, 3.023016503789222e-09
0, 8, 41, 3.170469886626393e-09
0, 8, 42, 3.424486694214579e-09
0, 8, 43, 9.236816311819496e-10
0, 8, 44, 2.822514666434017e-09
0, 8, 45, 2.362343654027654e-09
0, 8, 46, 1.275795469268814e-09
0, 8, 47, 1.865739562845192e-09
0, 8, 48, 3.899290668130106e-09
0, 8, 49, 4.995699409704457e-09
0, 9, 0, 3.296049211343188e-09
0, 9, 1, 2.646284302798563e-09
0, 9, 2, 2.779519725493174e-09
0, 9, 3, 3.216123811711213e-09
0, 9, 4, 3.014716476457124e-09
0, 9, 5, 5.029458627348049e-09
0, 9, 6, 4.528645902723838e-09
0, 9, 7, 3.564604389438841e-09
0, 9, 8, 7.589176398425934e-09
0, 9, 9, 5.728808982752298e-09
0, 9, 10, 7.170481985951938e-09
0, 9, 11, 2.753413275158323e-09
0, 9, 12, 8.019878094955857e-09
0, 9, 13, 5.751628506800444e-09
0, 9, 14, 3.431249062657571e-09
0, 9, 15, 5.589995133448156e-09
0, 9, 16, 9.42611677601235e-09
0, 9, 17, 5.858928453505996e-09
0, 9, 18, 3.40478867322247e-09
0, 9, 19, 5.633711275265796e-09
0, 9, 20, 5.510559564214645e-09
0, 9, 21, 5.363231636579258e-09
0, 9, 22, 4.101605277639919e-09
0, 9, 23, 6.374339722725608e-09
0, 9, 24, 4.259052222010951e-09
0, 9, 25, 9.276007517655671e-09
0, 9, 26, 5.577455830518829e-09
0, 9, 27, 5.76905412330575e-09
0, 9, 28, 8.816968488645216e-09
0, 9, 29, 4.012225662819446e-09
0, 9, 30, 4.773329731477816e-09
0, 9, 31, 6.659577778123094e-09
0, 9, 32, 4.907137807208528e-09
0, 9, 33, 7.496502085757584e-09
0, 9, 34, 6.670978436318364e-09
0, 9, 35, 4.382452623019617e-09
0, 9, 36, 4.512080042928801e-09
0, 9, 37, 5.59756330176242e-09
0, 9, 38, 6.106502858926888e-09
0, 9, 39, 3.11076608916494e-09
0, 9, 40, 2.498796058958419e-09
0, 9, 41, 3.651645652524849e-09
0, 9, 42, 4.940017728216617e-09
0, 9, 43, 5.712696538040518e-09
0, 9, 44, 6.966617505099748e-09
0, 9, 45, 3.156242156521216e-09
0, 9, 46, 6.136750219098985e-09
0, 9, 47, 2.663300024963178e-09
0, 9, 48, 1.794793424991781e-09
0, 9, 49, 1.282193684559729e-09
0, 10, 0, 5.793753476979191e-09
0, 10, 1, 2.12016892930933e-09
0, 10, 2, 4.184626867242969e-09
0, 10, 3, 5.307501105278334e-09
0, 10, 4, 5.99652372201831e-09
0, 10, 5, 4.076538218100723e-09
0, 10, 6, 3.541032800313815e-09
0, 10, 7, 3.252460967217985e-09
0, 10, 8, 3.735716624930774e-09
0, 10, 9, 4.365127370675737e-09
0, 10, 10, 6.934010254866507e-09
0, 10, 11, 7.388101685990023e-09
0, 10, 12, 5.15456477501175e-09
0, 10, 13, 5.30754151739643e-09
0, 10, 14, 3.98695121361925e-09
0, 10, 15, 6.586814649267581e-09
0, 10, 16, 2.701696866225234e-09
0, 10, 17, 3.069688059298414e-09
0, 10, 18, 3.80861742144134e-09
0, 10, 19, 4.913474960233088e-09
0, 10, 20, 5.116338019917066e-09
0, 10, 21, 5.612842191027312e-09
0, 10, 22, 5.713511441740593e-09
0, 10, 23, 5.748465703447891e-09
0, 10, 24, 4.829517674664885e-09
0, 10, 25, 7.445921657023291e-09
0, 10, 26, 4.228680072770885e-09
0, 10, 27, 7.648801592097243e-09
0, 10, 28, 6.368209959362048e-09
0, 10, 29, 4.89439688777793e-09
0, 10, 30, 7.176069960479481e-09
0, 10, 31, 6.379539563283743e-09
0, 10, 32, 3.573953355484605e-09
0, 10, 33, 4.823714316870564e-09
0, 10, 34, 7.001068613732286e-09
0, 10, 35, 1.054706277869855e-08
0, 10, 36, 5.970419270084903e-09
0, 10, 37, 5.012032122664323e-09
0, 10, 38, 4.502350492430196e-09
0, 10, 39, 5.174609185587542e-09
0, 10, 40, 1.013751127487694e-08
0, 10, 41, 3.021314753937077e-09
0, 10, 42, 3.514651458758067e-09
0, 10, 43, 3.209453147690056e-09
0, 10, 44, 3.701279283063741e-09
0, 10, 45, 5.711764394789043e-09
0, 10, 46, 4.215907178917178e-09
0, 10, 47, 4.44126690979374e-09
0, 10, 48, 3.610277410359686e-09
0, 10, 49, 1.840778307560242e-09
0, 11, 0, 4.457846092265072e-09
0, 11, 1, 5.248427470405659e-09
0, 11, 2, 2.262362741589641e-09
0, 11, 3, 5.116319812259462e-09
0, 11, 4, 6.276844377595125e-09
0, 11, 5, 7.095022347414215e-09
0, 11, 6, 5.432693406248745e-09
0, 11, 7, 2.497982931615184e-09
0, 11, 8, 4.769891592815156e-09
0, 11, 9, 5.202707598073175e-09
0, 11, 10, 6.447767653128267e-09
0, 11, 11, 6.322653955947999e-09
0, 11, 12, 6.223032755769964e-09
0, 11, 13, 4.918847107404645e-09
0, 11, 14, 4.033114731072374e-09
0, 11, 15, 4.139492304489067e-09
0, 11, 16, 5.0211337310202e-09
0, 11, 17, 4.627714655924819e-09
0, 11, 18, 4.15601197900628e-09
0, 11, 19, 5.934165603349584e-09
0, 11, 20, 5.489698473581939e-09
0, 11, 21, 7.860380790702948e-09
0, 11, 22, 6.143687336646053e-09
0, 11, 23, 9.956631075169753e-09
0, 11, 24, 5.894166488218389e-09
0, 11, 25, 7.917225985920595e-09
0, 11, 26, 5.440948580570648e-09
0, 11, 27, 7.705962090653884e-09
0, 11, 28, 3.955498595331619e-09
0, 11, 29, 7.522448441932283e-09
0, 11, 30, 4.892813709744814e-09
0, 11, 31, 6.756793347051371e-09
0, 11, 32, 6.676181385500968e-09
0, 11, 33, 8.133725692971439e-09
0, 11, 34, 4.643042395002794e-09
0, 11, 35, 5.253927071180442e-09
0, 11, 36, 5.398931079980684e-09
0, 11, 37, 5.466045838176115e-09
0, 11, 38, 5.551568982298249e-09
0, 11, 39, 5.445218498323356e-09
0, 11, 40, 5.163316441070265e-09
0, 11, 41, 5.213069975695817e-09
0, 11, 42, 4.794276087238813e-09
0, 11, 43, 2.808053567449065e-09
0, 11, 44, 3.537497628158803e-09
0, 11, 45, 4.056489810722042e-09
0, 11, 46, 3.934219616752443e-09
0, 11, 47, 3.430611350552226e-09
0, 11, 48, 4.229493200114121e-09
0, 11, 49, 3.794867975415173e-09
0, 12, 0, 3.494409872573101e-09
0, 12, 1, 1.285334061407184e-09
0, 12, 2, 7.183767358753812e-09
0, 12, 3, 3.912699497732319e-09
0, 12, 4, 2.359438422416815e-09
0, 12, 5, 4.020888955125201e-09
0, 12, 6, 5.589128271310528e-09
0, 12, 7, 4.798893726842834e-09
0, 12, 8, 3.799896841627515e-09
0, 12, 9, 4.457513025357684e-09
0, 12, 10, 6.773728689069003e-09
0, 12, 11, 6.091650739392662e-09
0, 12, 12, 4.776511186577181e-09
0, 12, 13, 8.827439224035061e-09
0, 12, 14, 6.939662622329479e-09
0, 12, 15, 4.876348214111204e-09
0, 12, 16, 7.216375053076263e-09
0, 12, 17, 9.994850280747869e-09
0, 12, 18, 5.738535868715644e-09
0, 12, 19, 8.920340910378854e-09
0, 12, 20, 7.741106422542998e-09
0, 12, 21, 6.923521755908268e-09
0, 12, 22, 7.714585414930752e-09
0, 12, 23, 6.981711209164132e-09
0, 12, 24, 8.17805911879077e-09
0, 12, 25, 5.943956882248358e-09
0, 12, 26, 5.533319580308671e-09
0, 12, 27, 7.351165898228373e-09
0, 12, 28, 5.254431112433622e-09
0, 12, 29, 6.1457092748185e-09
0, 12, 30, 8.646479088270098e-09
0, 12, 31, 9.453634319811499e-09
0, 12, 32, 7.39462668875035e-09
0, 12, 33, 6.051945167229178e-09
0, 12, 34, 4.467160419352467e-09
0, 12, 35, 7.146745417685452e-09
0, 12, 36, 6.841646804645052e-09
0, 12, 37, 5.430653260418694e-09
0, 12, 38, 6.749639958059106e-09
0, 12, 39, 4.155755739532196e-09
0, 12, 40, 4.242115103636479e-09
0, 12, 41, 6.70934818813862e-09
0, 12, 42, 8.661269923493364e-09
0, 12, 43, 5.456746166032644e-09
0, 12, 44, 3.358237021799937e-09
0, 12, 45, 4.373463813323042e-09
0, 12, 46, 3.874438103679267e-09
0, 12, 47, 6.820203068969022e-09
0, 12, 48, 5.284217063916685e-09
0, 12, 49, 3.539373683025815e-09
0, 13, 0, 4.648699647447074e-09
0, 13, 1, 7.808574231660259e-09
0, 13, 2, 4.809848519471416e-09
0, 13, 3, 5.363231192490048e-09
0, 13, 4, 5.274924941289783e-09
0, 13, 5, 3.921901470249622e-09
0, 13, 6, 5.787311074811896e-09
0, 13, 7, 4.676387277413596e-09
0, 13, 8, 5.730516505764172e-09
0, 13, 9, 7.288570191832378e-09
0, 13, 10, 4.348779558682736e-09
0, 13, 11, 4.809666886984587e-09
0, 13, 12, 7.145528169161253e-09
0, 13, 13, 5.291199034473948e-09
0, 13, 14, 5.855846918478846e-09
0, 13, 15, 6.857818757310952e-09
0, 13, 16, 5.759597687671203e-09
0, 13, 17, 8.426281894458043e-09
0, 13, 18, 5.844903672169721e-09
0, 13, 19, 4.763414551689493e-09
0, 13, 20, 1.013790829063055e-08
0, 13, 21, 4.531506725413692e-09
0, 13, 22, 6.558865894845667e-09
0, 13, 23, 9.667517453237906e-09
0, 13, 24, 3.29401461662826e-09
0, 13, 25, 5.352438492423062e-09
0, 13, 26, 9.684882229521463e-09
0, 13, 27, 6.859519174895468e-09
0, 13, 28, 7.936512780304383e-09
0, 13, 29, 3.380746793624212e-09
0, 13, 30, 6.472788971478849e-09
0, 13, 31, 4.401048414592879e-09
0, 13, 32, 6.210761238634177e-09
0, 13, 33, 5.160206484333685e-09
0, 13, 34, 7.519043165871153e-09
0, 13, 35, 8.407612384075946e-09
0, 13, 36, 5.755492082926139e-09
0, 13, 37, 6.755807469005504e-09
0, 13, 38, 1.036796781761495e-08
0, 13, 39, 8.621483971182897e-09
0, 13, 40, 6.304972544057819e-09
0, 13, 41, 6.488201087506695e-09
0, 13, 42, 7.099617782557743e-09
0, 13, 43, 4.898407013342876e-09
0, 13, 44, 5.302706718168793e-09
0, 13, 45, 6.935863883228421e-09
0, 13, 46, 5.173210304576514e-09
0, 13, 47, 5.35208721785807e-09
0, 13, 48, 4.674196585341406e-09
0, 13, 49, 2.795950582168416e-09
0, 14, 0, 6.049579948097517e-09
0, 14, 1, 2.75558309503765e-09
0, 14, 2, 2.951813016238702e-09
0, 14, 3, 2.527985376588049e-09
0, 14, 4, 4.426022659487217e-09
0, 14, 5, 4.720758450815765e-09
0, 14, 6, 6.521208462118011e-09
0, 14, 7, 4.823615284976768e-09
0, 14, 8, 4.116122553909918e-09
0, 14, 9, 6.339662572685256e-09
0, 14, 10, 2.040918989365537e-09
0, 14, 11, 7.01047753182138e-09
0, 14, 12, 3.973373630117294e-09
0, 14, 13, 3.289687855456691e-09
0, 14, 14, 4.754936444584246e-09
0, 14, 15, 9.16654130378447e-09
0, 14, 16, 7.417138014886859e-09
0, 14, 17, 9.161619018982492e-09
0, 14, 18, 6.258266349590258e-09
0, 14, 19, 5.890935739216729e-09
0, 14, 20, 6.936625940312524e-09
0, 14, 21, 6.206329228319873e-09
0, 14, 22, 8.389502426098261e-09
0, 14, 23, 4.932513508748571e-09
0, 14, 24, 1.025126383780162e-08
0, 14, 25, 1.03453823285804e-08
0, 14, 26, 6.509262018283835e-09
0, 14, 27, 7.766781884299689e-09
0, 14, 28, 7.127505696757908e-09
0, 14, 29, 3.480127519495113e-09
0, 14, 30, 8.927615091636198e-09
0, 14, 31, 5.869956076764993e-09
0, 14, 32, 8.640466120368728e-09
0, 14, 33, 8.407206486538144e-09
0, 14, 34, 3.821253091729204e-09
0, 14, 35, 6.657432827239518e-09
0, 14, 36, 7.377165545108255e-09
0, 14, 37, 6.95147761575754e-09
0, 14, 38, 7.109111965775128e-09
0, 14, 39, 6.14887918359841e-09
0, 14, 40, 8.32647728543634e-09
0, 14, 41, 7.215276820460303e-09
0, 14, 42, 4.810432940871578e-09
0, 14, 43, 4.684368448693021e-09
0, 14, 44, 5.538750791345137e-09
0, 14, 45, 7.408126112551372e-09
0, 14, 46, 5.409077186158129e-09
0, 14, 47, 4.725744684463962e-09
0, 14, 48, 8.951507979304552e-09
0, 14, 49, 7.372658483717487e-09
0, 15, 0, 2.948510324785047e-09
0, 15, 1, 2.450290637057151e-09
0, 15, 2, 4.439497658381697e-09
0, 15, 3, 4.576436563041852e-09
0, 15, 4, 6.33505958802516e-09
0, 15, 5, 5.846997108704954e-09
0, 15, 6, 2.112238828289037e-09
0, 15, 7, 5.886923393205734e-09
0, 15, 8, 4.836734568414158e-09
0, 15, 9, 4.476463644209616e-09
0, 15, 10, 5.103747646728607e-09
0, 15, 11, 6.606134750342108e-09
0, 15, 12, 7.041002891838843e-09
0, 15, 13, 7.273346813718717e-09
0, 15, 14, 6.989631096132598e-09
0, 15, 15, 5.629317012534329e-09
0, 15, 16, 5.816037429440257e-09
0, 15, 17, 6.310687972188589e-09
0, 15, 18, 4.739191705738222e-09
0, 15, 19, 6.363626070537975e-09
0, 15, 20, 7.723037320772619e-09
0, 15, 21, 9.850964488578029e-09
0, 15, 22, 4.449894230873497e-09
0, 15, 23, 5.969324590182623e-09
0, 15, 24, 8.078176350068134e-09
0, 15, 25, 8.463071132780442e-09
0, 15, 26, 6.434707877644996e-09
0, 15, 27, 7.625316378323532e-09
0, 15, 28, 6.20035756071502e-09
0, 15, 29, 8.987695032658394e-09
0, 15, 30, 6.132840901784675e-09
0, 15, 31, 7.249507216755546e-09
0, 15, 32, 7.693499171068652e-09
0, 15, 33, 6.42640296533159e-09
0, 15, 34, 5.429524829736465e-09
0, 15, 35, 7.470728924374725e-09
0, 15, 36, 8.308817633917442e-09
0, 15, 37, 6.00783867099608e-09
0, 15, 38, 6.685496600766783e-09
0, 15, 39, 6.696751153612013e-09
0, 15, 40, 4.501202077733524e-09
0, 15, 41, 4.020457744502437e-09
0, 15, 42, 4.804311615203005e-09
0, 15, 43, 6.219920578587335e-09
0, 15, 44, 1.121814552362821e-08
0, 15, 45, 4.115324525599817e-09
0, 15, 46, 7.180496197634056e-09
0, 15, 47, 5.971712901953197e-09
0, 15, 48, 2.740808024981334e-09
0, 15, 49, 3.444045271194796e-09
0, 16, 0, 5.418340887075601e-09
0, 16, 1, 2.365050599806295e-09
0, 16, 2, 3.87780785260361e-09
0, 16, 3, 5.166268746137348e-09
0, 16, 4, 6.894206983076856e-09
0, 16, 5, 4.289700594739543e-09
0, 16, 6, 5.510894851568082e-09
0, 16, 7, 1.112917225043475e-08
0, 16, 8, 4.079481197294399e-09
0, 16, 9, 7.476717023280344e-09
0, 16, 10, 6.130301599682753e-09
0, 16, 11, 7.205375407437487e-09
0, 16, 12, 3.950487492687671e-09
0, 16, 13, 8.359232417376461e-09
0, 16, 14, 6.859213197429881e-09
0, 16, 15, 6.695737742035135e-09
0, 16, 16, 7.096492726788028e-09
0, 16, 17, 7.257105583136081e-09
0, 16, 18, 5.170002204124557e-09
0, 16, 19, 5.849966289162012e-09
0, 16, 20, 6.08570260851593e-09
0, 16, 21, 5.797717861355522e-09
0, 16, 22, 8.176997745579229e-09
0, 16, 23, 8.051896038807627e-09
0, 16, 24, 6.920972239754519e-09
0, 16, 25, 8.123093309109208e-09
0, 16, 26, 5.620094167824163e-09
0, 16, 27, 1.097011725903485e-08
0, 16, 28, 6.606645452933435e-09
0, 16, 29, 6.233600302607556e-09
0, 16, 30, 5.592148522026719e-09
0, 16, 31, 7.311531824427675e-09
0, 16, 32, 7.331343532257506e-09
0, 16, 33, 9.802048062113045e-09
0, 16, 34, 9.765285469143237e-09
0, 16, 35, 4.910459150408997e-09
0, 16, 36, 4.753637927734644e-09
0, 16, 37, 7.593354389712204e-09
0, 16, 38, 4.955903243342163e-09
0, 16, 39, 1.140236260965821e-08
0, 16, 40, 5.053314211522775e-09
0, 16, 41, 7.589741279900863e-09
0, 16, 42, 7.746466579305888e-09
0, 16, 43, 6.459015988724559e-09
0, 16, 44, 1.248117253993541e-08
0, 16, 45, 6.36459107639098e-09
0, 16, 46, 9.493244412794866e-09
0, 16, 47, 3.18568726953572e-09
0, 16, 48, 5.136761238588861e-09
0, 16, 49, 4.346275783717601e-09
0, 17, 0, 4.43587522269695e-09
0, 17, 1, 2.455790681921144e-09
0, 17, 2, 3.894108147051156e-09
0, 17, 3, 8.091049608083267e-09
0, 17, 4, 5.115221135554293e-09
0, 17, 5, 9.746769613627748e-09
0, 17, 6, 5.964840621430767e-09
0, 17, 7, 4.581405477210865e-09
0, 17, 8, 5.333708585908425e-09
0, 17, 9, 6.698366306068237e-09
0, 17, 10, 9.851264692883888e-09
0, 17, 11, 4.901873129625756e-09
0, 17, 12, 6.267298235940189e-09
0, 17, 13, 4.644050921598364e-09
0, 17, 14, 8.662399686443223e-09
0, 17, 15, 8.95319995919408e-09
0, 17, 16, 7.793489409380072e-09
0, 17, 17, 1.11835198879362e-08
0, 17, 18, 5.949773118629764e-09
0, 17, 19, 9.54778922590549e-09
0, 17, 20, 8.000997198109872e-09
0, 17, 21, 1.283346495739579e-08
0, 17, 22, 9.492953978451624e-09
0, 17, 23, 1.136499871989827e-08
0, 17, 24, 5.697899929657524e-09
0, 17, 25, 5.471046726768236e-09
0, 17, 26, 8.535916862228987e-09
0, 17, 27, 4.514889795359522e-09
0, 17, 28, 9.721077276481083e-09
0, 17, 29, 1.021220707997372e-08
0, 17, 30, 6.087105042240637e-09
0, 17, 31, 6.727220558389035e-09
0, 17, 32, 5.482476694851357e-09
0, 17, 33, 6.239680772068823e-09
0, 17, 34, 1.232510093984729e-08
0, 17, 35, 7.987172701007239e-09
0, 17, 36, 5.583147277832268e-09
0, 17, 37, 4.711538270640858e-09
0, 17, 38, 7.008868152524883e-09
0, 17, 39, 7.500386978165352e-09
0, 17, 40, 6.502978155964456e-09
0, 17, 41, 4.935183373078189e-09
0, 17, 42, 4.193195568547026e-09
0, 17, 43, 5.6810596227308e-09
0, 17, 44, 2.426741252392617e-09
0, 17, 45, 5.172962502797418e-09
0, 17, 46, 7.684121783313458e-09
0, 17, 47, 5.014447079787487e-09
0, 17, 48, 4.359496319494838e-09
0, 17, 49, 2.289645806285989e-09
0, 18, 0, 5.492827082065332e-09
0, 18, 1, 4.003226194981835e-09
0, 18, 2, 4.18625267784023e-09
0, 18, 3, 5.829966731596414e-09
0, 18, 4, 3.958050331931418e-09
0, 18, 5, 4.777112927456528e-09
0, 18, 6, 6.723396506203017e-09
0, 18, 7, 1.119283510320201e-08
0, 18, 8, 8.267916129511832e-09
0, 18, 9, 4.430015465572978e-09
0, 18, 10, 9.309355064601732e-09
0, 18, 11, 5.561279436960831e-09
0, 18, 12, 8.63095372949374e-09
0, 18, 13, 6.063695323632601e-09
0, 18, 14, 7.436260052173793e-09
0, 18, 15, 6.809628416704072e-09
0, 18, 16, 7.736458584872707e-09
0, 18, 17, 7.99821631147779e-09
0, 18, 18, 7.163748261262981e-09
0, 18, 19, 7.497733101047288e-09
0, 18, 20, 1.065529886545846e-08
0, 18, 21, 7.771444821003115e-09
0, 18, 22, 4.521674146218402e-09
0, 18, 23, 6.949372188813641e-09
0, 18, 24, 8.014070296269438e-09
