# TOPAS Version: 3.7
# Parameter File: TestingDose1.txt
# Results for scorer TestingDose1
# Scored in component: Phantom
# X in 50 bins of 0.1 cm
# Y in 50 bins of 0.1 cm
# Z in 50 bins of 0.1 cm
# DoseToMedium ( Gy ) : Sum   
0, 0, 0, 5.030763805535798e-09
0, 0, 1, 8.21546830565012e-09
0, 0, 2, 4.490582572458379e-09
0, 0, 3, 3.310358209773767e-08
0, 0, 4, 2.442290147897097e-09
0, 0, 5, 6.215216785676603e-09
0, 0, 6, 9.464426575789275e-09
0, 0, 7, 6.608532387986088e-09
0, 0, 8, 1.056157206136277e-08
0, 0, 9, 9.283701807305533e-09
0, 0, 10, 2.135012167059358e-09
0, 0, 11, 1.138900707076118e-08
0, 0, 12, 1.160263707333797e-08
0, 0, 13, 0
0, 0, 14, 1.226586565650223e-08
0, 0, 15, 8.022169595278683e-09
0, 0, 16, 7.222715758814502e-09
0, 0, 17, 1.300288676731043e-08
0, 0, 18, 1.217134038000722e-08
0, 0, 19, 2.423824918551531e-09
0, 0, 20, 1.652580827737893e-08
0, 0, 21, 2.762007511591946e-09
0, 0, 22, 1.278825401129779e-08
0, 0, 23, 7.43081951526392e-09
0, 0, 24, 6.024870824461459e-09
0, 0, 25, 6.952880049482246e-09
0, 0, 26, 5.591377583158419e-09
0, 0, 27, 6.789096396175864e-09
0, 0, 28, 8.835106868332332e-09
0, 0, 29, 1.023071050099134e-08
0, 0, 30, 8.696983577749506e-09
0, 0, 31, 6.331294155614842e-09
0, 0, 32, 4.924040730713841e-09
0, 0, 33, 2.439062996018038e-08
0, 0, 34, 5.693440829901419e-09
0, 0, 35, 9.788135635346862e-09
0, 0, 36, 9.969397751774522e-09
0, 0, 37, 2.408174282209075e-08
0, 0, 38, 7.907280163976793e-09
0, 0, 39, 8.850508770308352e-09
0, 0, 40, 1.02699821979968e-08
0, 0, 41, 2.966734857778874e-09
0, 0, 42, 1.004522021119669e-09
0, 0, 43, 1.004015359740151e-08
0, 0, 44, 1.963557982875841e-09
0, 0, 45, 4.986829615916122e-09
0, 0, 46, 2.080910732615848e-08
0, 0, 47, 1.813527283900385e-08
0, 0, 48, 2.145509103712584e-09
0, 0, 49, 5.246040490902715e-09
0, 1, 0, 7.294631121368411e-09
0, 1, 1, 1.263110682714341e-08
0, 1, 2, 2.105378094086063e-09
0, 1, 3, 2.173570834429484e-08
0, 1, 4, 2.377409158427213e-09
0, 1, 5, 6.321708045931018e-09
0, 1, 6, 2.716999958352062e-09
0, 1, 7, 3.631430267603264e-09
0, 1, 8, 1.513032366062816e-08
0, 1, 9, 1.820778194883133e-09
0, 1, 10, 4.832157340928234e-09
0, 1, 11, 1.397187432417013e-08
0, 1, 12, 7.932142942479459e-09
0, 1, 13, 1.276070982214605e-08
0, 1, 14, 7.56653051325884e-09
0, 1, 15, 1.139729199906014e-08
0, 1, 16, 1.353769274459182e-08
0, 1, 17, 3.787539171185017e-10
0, 1, 18, 2.313516134222482e-08
0, 1, 19, 1.375368796630028e-08
0, 1, 20, 2.801862519774545e-09
0, 1, 21, 8.475870560964438e-10
0, 1, 22, 3.173462159722362e-09
0, 1, 23, 2.783901287273238e-08
0, 1, 24, 9.300099357290037e-09
0, 1, 25, 3.993902097931823e-09
0, 1, 26, 1.254185022503407e-08
0, 1, 27, 7.655857281463341e-09
0, 1, 28, 5.86362558507858e-09
0, 1, 29, 5.349333864757e-09
0, 1, 30, 9.771857101270598e-09
0, 1, 31, 1.858475151550465e-08
0, 1, 32, 1.282083772480291e-09
0, 1, 33, 4.020225485845685e-09
0, 1, 34, 7.760744935580988e-09
0, 1, 35, 4.641383721804004e-09
0, 1, 36, 1.113828140830719e-08
0, 1, 37, 6.067403246490244e-10
0, 1, 38, 5.455113694097236e-09
0, 1, 39, 5.928732171867068e-09
0, 1, 40, 3.676751791914512e-09
0, 1, 41, 1.230705493071582e-08
0, 1, 42, 4.701837807985498e-10
0, 1, 43, 2.379821895104328e-09
0, 1, 44, 5.816981563100398e-09
0, 1, 45, 4.496825134481242e-09
0, 1, 46, 8.745971058488067e-09
0, 1, 47, 7.770176502219783e-09
0, 1, 48, 5.158184546161237e-09
0, 1, 49, 4.550099852451694e-09
0, 2, 0, 0
0, 2, 1, 1.163182794527984e-08
0, 2, 2, 5.137702707713743e-09
0, 2, 3, 0
0, 2, 4, 2.610917038126104e-09
0, 2, 5, 1.264643612053362e-09
0, 2, 6, 1.290084128413582e-08
0, 2, 7, 5.969486238655008e-09
0, 2, 8, 1.15158407254512e-08
0, 2, 9, 6.612478564704816e-09
0, 2, 10, 1.495807033791152e-08
0, 2, 11, 6.484262460304535e-09
0, 2, 12, 1.153879303217309e-08
0, 2, 13, 1.562758278339516e-08
0, 2, 14, 3.474486476306993e-09
0, 2, 15, 6.124774021287749e-09
0, 2, 16, 7.252975997573685e-09
0, 2, 17, 1.27358026347224e-08
0, 2, 18, 8.401909390443052e-09
0, 2, 19, 2.450823100019761e-09
0, 2, 20, 9.047650628701831e-09
0, 2, 21, 1.565308416218159e-08
0, 2, 22, 1.630527712848107e-08
0, 2, 23, 1.000979654719458e-08
0, 2, 24, 6.403806374066789e-09
0, 2, 25, 1.063377386145703e-08
0, 2, 26, 1.622628786890346e-08
0, 2, 27, 2.027036094531809e-09
0, 2, 28, 7.011330183104292e-09
0, 2, 29, 3.259039427216948e-10
0, 2, 30, 3.767630651907439e-09
0, 2, 31, 3.446413376906321e-09
0, 2, 32, 9.172484993769103e-09
0, 2, 33, 8.420768971006964e-09
0, 2, 34, 1.294477058877419e-08
0, 2, 35, 6.868767332690595e-09
0, 2, 36, 1.056386444986401e-08
0, 2, 37, 1.097928592486141e-08
0, 2, 38, 1.225504053792292e-08
0, 2, 39, 1.317239295417494e-08
0, 2, 40, 1.505036628657308e-08
0, 2, 41, 1.616424505357372e-08
0, 2, 42, 8.894885383803341e-10
0, 2, 43, 2.844436242099846e-09
0, 2, 44, 9.875629203293101e-09
0, 2, 45, 6.205279845516998e-09
0, 2, 46, 7.195072093679755e-09
0, 2, 47, 7.577432903360659e-09
0, 2, 48, 1.068636290568747e-08
0, 2, 49, 6.291048237905272e-10
0, 3, 0, 1.244954361823147e-08
0, 3, 1, 1.75709971017568e-08
0, 3, 2, 4.185069180095979e-09
0, 3, 3, 6.569256694177739e-09
0, 3, 4, 1.600687404845758e-08
0, 3, 5, 1.328135645906059e-08
0, 3, 6, 1.861099185873627e-08
0, 3, 7, 8.15652612118356e-09
0, 3, 8, 6.270157282273203e-09
0, 3, 9, 8.128333561785439e-09
0, 3, 10, 8.225472747369622e-09
0, 3, 11, 7.597114937141214e-09
0, 3, 12, 8.53481196827488e-09
0, 3, 13, 1.761805989985987e-08
0, 3, 14, 9.204339512791648e-09
0, 3, 15, 1.703736884905993e-08
0, 3, 16, 1.930134452265975e-08
0, 3, 17, 2.083740824332381e-08
0, 3, 18, 2.84039138875869e-08
0, 3, 19, 8.385740102312411e-09
0, 3, 20, 1.546558880960447e-09
0, 3, 21, 3.643237267425548e-09
0, 3, 22, 7.738202079110579e-09
0, 3, 23, 1.024420814843552e-08
0, 3, 24, 6.799406815360953e-09
0, 3, 25, 1.222574841364121e-08
0, 3, 26, 8.744897250778649e-09
0, 3, 27, 1.192654597303999e-08
0, 3, 28, 8.892016012396198e-09
0, 3, 29, 1.125200466134402e-08
0, 3, 30, 1.053706011333588e-08
0, 3, 31, 2.153291767115206e-08
0, 3, 32, 1.458978982071812e-08
0, 3, 33, 1.904794988405456e-09
0, 3, 34, 5.63698732136686e-09
0, 3, 35, 3.984844010318511e-09
0, 3, 36, 1.422721940258498e-08
0, 3, 37, 7.87595233475713e-09
0, 3, 38, 5.281784787314336e-09
0, 3, 39, 7.86925902218627e-09
0, 3, 40, 4.019275579025816e-09
0, 3, 41, 7.697009252183307e-09
0, 3, 42, 3.826050587463214e-09
0, 3, 43, 4.797736430361965e-09
0, 3, 44, 6.52429310576963e-09
0, 3, 45, 6.738682500895266e-09
0, 3, 46, 1.304682228919773e-08
0, 3, 47, 1.551897454987738e-08
0, 3, 48, 1.775363500655658e-08
0, 3, 49, 5.441847861220594e-09
0, 4, 0, 9.021455582569615e-09
0, 4, 1, 7.617687813876728e-09
0, 4, 2, 2.34441230873017e-08
0, 4, 3, 1.036526864339748e-08
0, 4, 4, 8.001876494745375e-09
0, 4, 5, 1.123794390878174e-08
0, 4, 6, 6.781340822215043e-09
0, 4, 7, 5.14384179695071e-09
0, 4, 8, 1.080652989315922e-08
0, 4, 9, 1.69591949372716e-08
0, 4, 10, 1.008633088162014e-08
0, 4, 11, 1.764555968009063e-08
0, 4, 12, 1.079951417182201e-08
0, 4, 13, 4.157230559798109e-09
0, 4, 14, 1.493507895133916e-08
0, 4, 15, 4.937248387903992e-09
0, 4, 16, 8.446238375370285e-09
0, 4, 17, 1.564448126600837e-08
0, 4, 18, 9.876010231835153e-09
0, 4, 19, 9.180066484759664e-09
0, 4, 20, 3.984910623699989e-09
0, 4, 21, 6.158935583755465e-09
0, 4, 22, 1.188788534278729e-08
0, 4, 23, 6.93323087830322e-09
0, 4, 24, 4.113473561773162e-09
0, 4, 25, 1.322048071017434e-08
0, 4, 26, 2.254299857895603e-08
0, 4, 27, 5.449156237347097e-09
0, 4, 28, 2.694816991777316e-08
0, 4, 29, 9.01981156431475e-09
0, 4, 30, 1.032717023008445e-08
0, 4, 31, 5.588140616907822e-09
0, 4, 32, 4.712053858213494e-09
0, 4, 33, 1.813836014719072e-08
0, 4, 34, 1.317106068654539e-08
0, 4, 35, 6.204802449616409e-09
0, 4, 36, 5.611149322959363e-09
0, 4, 37, 0
0, 4, 38, 1.723073950188336e-08
0, 4, 39, 7.724465511671497e-09
0, 4, 40, 6.685034303899329e-09
0, 4, 41, 5.015383663931061e-09
0, 4, 42, 1.692317930235276e-08
0, 4, 43, 9.481998297644623e-09
0, 4, 44, 6.53960396945763e-09
0, 4, 45, 5.302249306282647e-09
0, 4, 46, 2.369560991866138e-09
0, 4, 47, 8.008076868293301e-09
0, 4, 48, 2.148873434748566e-08
0, 4, 49, 6.961391019189023e-09
0, 5, 0, 5.868742380954473e-09
0, 5, 1, 1.623776807457844e-10
0, 5, 2, 1.958372664034869e-08
0, 5, 3, 8.27648261036984e-09
0, 5, 4, 4.419005605882376e-09
0, 5, 5, 1.551839545754774e-08
0, 5, 6, 3.953321581207092e-08
0, 5, 7, 8.526084727122907e-09
0, 5, 8, 2.669389687071089e-08
0, 5, 9, 2.307333879514317e-08
0, 5, 10, 6.020526743810706e-09
0, 5, 11, 1.283326778178662e-08
0, 5, 12, 5.216476584024576e-09
0, 5, 13, 1.54119348394488e-08
0, 5, 14, 2.784056185589634e-08
0, 5, 15, 1.521694059647416e-08
0, 5, 16, 1.114665870716181e-08
0, 5, 17, 1.60950115457581e-08
0, 5, 18, 9.593945193842046e-09
0, 5, 19, 5.531318514329087e-09
0, 5, 20, 7.186577555273743e-09
0, 5, 21, 3.491979150282987e-09
0, 5, 22, 6.846753386469118e-09
0, 5, 23, 2.238049923164454e-08
0, 5, 24, 9.933398104067237e-09
0, 5, 25, 1.856528442090166e-08
0, 5, 26, 1.709844377195679e-09
0, 5, 27, 3.512049984166765e-09
0, 5, 28, 5.347026377222619e-09
0, 5, 29, 1.5627684035735e-08
0, 5, 30, 1.375199065734023e-08
0, 5, 31, 1.543852867769147e-08
0, 5, 32, 2.9139686219537e-08
0, 5, 33, 9.149616175818664e-09
0, 5, 34, 2.471782334367845e-09
0, 5, 35, 2.916152830323426e-08
0, 5, 36, 1.76350489766719e-08
0, 5, 37, 1.475755784241528e-08
0, 5, 38, 1.458509224505633e-08
0, 5, 39, 1.626546541899643e-08
0, 5, 40, 1.042308728216312e-08
0, 5, 41, 8.185648603387108e-09
0, 5, 42, 2.621374584066416e-08
0, 5, 43, 1.842058416912096e-08
0, 5, 44, 1.265177562714825e-08
0, 5, 45, 5.914047473964956e-09
0, 5, 46, 1.176813224645912e-08
0, 5, 47, 2.934069698312669e-08
0, 5, 48, 4.572640488476054e-09
0, 5, 49, 1.095400392614465e-08
0, 6, 0, 2.002475341100762e-08
0, 6, 1, 7.813557800773197e-09
0, 6, 2, 1.168883034807777e-08
0, 6, 3, 2.45169768930964e-08
0, 6, 4, 2.258262377097253e-08
0, 6, 5, 5.619049670002596e-09
0, 6, 6, 6.199176727506028e-09
0, 6, 7, 1.229792001566921e-08
0, 6, 8, 8.807250928555277e-09
0, 6, 9, 7.657113165748797e-09
0, 6, 10, 1.402899663105472e-08
0, 6, 11, 1.243622094193597e-08
0, 6, 12, 1.50111478802728e-08
0, 6, 13, 7.334229668032322e-09
0, 6, 14, 1.888580136721885e-08
0, 6, 15, 1.60617616984382e-08
0, 6, 16, 1.345550071363277e-08
0, 6, 17, 1.74306702405147e-08
0, 6, 18, 2.408639065976104e-09
0, 6, 19, 1.265673077455176e-08
0, 6, 20, 9.855093630051215e-09
0, 6, 21, 2.813309762927929e-08
0, 6, 22, 1.10568265654365e-08
0, 6, 23, 1.834989049598335e-08
0, 6, 24, 1.53901407173862e-08
0, 6, 25, 1.577818231623951e-08
0, 6, 26, 1.344199240804755e-08
0, 6, 27, 9.555185087606333e-09
0, 6, 28, 1.448361519607033e-08
0, 6, 29, 1.424159368212941e-08
0, 6, 30, 9.84610259990859e-09
0, 6, 31, 1.378265412910196e-08
0, 6, 32, 3.028642225899603e-09
0, 6, 33, 1.170599173150322e-08
0, 6, 34, 8.818759056339331e-09
0, 6, 35, 1.99030321113014e-08
0, 6, 36, 7.67315722072226e-09
0, 6, 37, 1.023980011893855e-08
0, 6, 38, 7.747181562933747e-09
0, 6, 39, 9.151214896974125e-09
0, 6, 40, 5.635206523635361e-09
0, 6, 41, 6.031127153249827e-09
0, 6, 42, 1.041953101577064e-08
0, 6, 43, 2.74183129533867e-08
0, 6, 44, 1.428906948319764e-08
0, 6, 45, 3.387158109546817e-09
0, 6, 46, 4.389097529866604e-09
0, 6, 47, 2.407287347239162e-08
0, 6, 48, 7.610109875599846e-09
0, 6, 49, 5.5910476248755e-09
0, 7, 0, 9.876249151830052e-09
0, 7, 1, 1.365130941621828e-08
0, 7, 2, 1.039704766725436e-08
0, 7, 3, 1.138027361236027e-08
0, 7, 4, 1.390441450865865e-08
0, 7, 5, 7.800059487195199e-10
0, 7, 6, 5.721572549077791e-09
0, 7, 7, 6.328922719234242e-09
0, 7, 8, 1.103788349610113e-08
0, 7, 9, 7.979538807489917e-09
0, 7, 10, 2.022548351021669e-08
0, 7, 11, 1.076590816495582e-08
0, 7, 12, 5.09085396060982e-09
0, 7, 13, 8.371084270208939e-09
0, 7, 14, 3.651610214205903e-08
0, 7, 15, 1.77663768141656e-08
0, 7, 16, 6.345448166911183e-09
0, 7, 17, 2.05641210726526e-08
0, 7, 18, 5.125897484248298e-09
0, 7, 19, 6.630675120078422e-09
0, 7, 20, 1.146394446038812e-08
0, 7, 21, 7.897432041659158e-09
0, 7, 22, 4.619934212968246e-09
0, 7, 23, 8.875161050525548e-09
0, 7, 24, 2.66381814384431e-08
0, 7, 25, 2.063201698376815e-08
0, 7, 26, 1.266751947781586e-08
0, 7, 27, 6.839529831381697e-09
0, 7, 28, 2.369124629808539e-08
0, 7, 29, 1.654557557628777e-08
0, 7, 30, 1.825525863807798e-08
0, 7, 31, 6.230398419404537e-09
0, 7, 32, 2.197306869788918e-08
0, 7, 33, 9.368871900505837e-09
0, 7, 34, 4.535952502493501e-09
0, 7, 35, 7.72229480361375e-09
0, 7, 36, 1.176976205385927e-08
0, 7, 37, 9.733221340013642e-09
0, 7, 38, 7.364985510349698e-09
0, 7, 39, 4.962333477465108e-08
0, 7, 40, 6.076021907830409e-09
0, 7, 41, 2.094859397061555e-08
0, 7, 42, 1.60382089831046e-08
0, 7, 43, 6.33719210441086e-09
0, 7, 44, 4.875734038733981e-09
0, 7, 45, 1.018427564503099e-08
0, 7, 46, 1.089768630890831e-08
0, 7, 47, 6.599347290858759e-09
0, 7, 48, 9.043113813334003e-09
0, 7, 49, 6.891505144324128e-09
0, 8, 0, 4.622780380714175e-09
0, 8, 1, 1.994192011522955e-08
0, 8, 2, 2.116430408705128e-08
0, 8, 3, 5.817180959155621e-09
0, 8, 4, 1.72029732681267e-08
0, 8, 5, 1.947478622810195e-08
0, 8, 6, 7.668857548992492e-09
0, 8, 7, 1.380183345389696e-08
0, 8, 8, 1.545179983963862e-08
0, 8, 9, 1.410864580719817e-08
0, 8, 10, 6.315772793641372e-09
0, 8, 11, 1.096562307623117e-08
0, 8, 12, 1.160963591928521e-08
0, 8, 13, 1.756296086341536e-08
0, 8, 14, 1.445960418067216e-08
0, 8, 15, 1.050804954161322e-08
0, 8, 16, 1.894055356999047e-09
0, 8, 17, 2.262022924526264e-08
0, 8, 18, 1.514437997229834e-08
0, 8, 19, 3.571808804281318e-08
0, 8, 20, 1.973091912077507e-08
0, 8, 21, 2.221320194450982e-08
0, 8, 22, 1.858879272731429e-08
0, 8, 23, 1.421640405396829e-08
0, 8, 24, 2.883373362294606e-08
0, 8, 25, 2.527438880406407e-08
0, 8, 26, 3.565086670320738e-09
0, 8, 27, 3.425506633902842e-08
0, 8, 28, 1.13771774223892e-08
0, 8, 29, 9.946652390624422e-09
0, 8, 30, 6.293957799385907e-09
0, 8, 31, 1.904455970702656e-08
0, 8, 32, 1.974966323814442e-08
0, 8, 33, 1.306128361022729e-08
0, 8, 34, 1.016341588666592e-08
0, 8, 35, 4.757912730468661e-09
0, 8, 36, 8.699396758515832e-09
0, 8, 37, 8.053980593558663e-09
0, 8, 38, 1.090918377855132e-08
0, 8, 39, 2.713717606184218e-08
0, 8, 40, 6.975413135990038e-09
0, 8, 41, 1.401755955754425e-08
0, 8, 42, 2.192283909963066e-09
0, 8, 43, 1.470297128491893e-08
0, 8, 44, 1.45998741984954e-08
0, 8, 45, 2.791351150221999e-09
0, 8, 46, 6.845394473486976e-09
0, 8, 47, 5.05039565723564e-09
0, 8, 48, 6.189185608462822e-09
0, 8, 49, 1.27113031211934e-08
0, 9, 0, 1.354498913030966e-08
0, 9, 1, 5.896875876487684e-09
0, 9, 2, 3.200552267657031e-09
0, 9, 3, 1.559752504931566e-08
0, 9, 4, 1.786967462891198e-09
0, 9, 5, 8.414362540065667e-09
0, 9, 6, 3.037234463931782e-08
0, 9, 7, 7.417114478158737e-09
0, 9, 8, 2.129158005459431e-08
0, 9, 9, 9.874665529707727e-09
0, 9, 10, 1.159756379820465e-08
0, 9, 11, 2.935980569773733e-09
0, 9, 12, 1.358780732374498e-08
0, 9, 13, 1.591445197846042e-08
0, 9, 14, 1.828323270558485e-08
0, 9, 15, 1.263500504222748e-08
0, 9, 16, 7.917517308442257e-09
0, 9, 17, 6.871716973222419e-09
0, 9, 18, 1.971245033871583e-08
0, 9, 19, 2.114515673667938e-08
0, 9, 20, 1.435100749347384e-08
0, 9, 21, 1.505939195567407e-08
0, 9, 22, 8.122690076106664e-09
0, 9, 23, 1.11630917842831e-08
0, 9, 24, 4.278148946212923e-09
0, 9, 25, 7.379251876216131e-09
0, 9, 26, 1.467845223146469e-08
0, 9, 27, 1.977662833496652e-08
0, 9, 28, 1.928571968790038e-08
0, 9, 29, 1.620736611585016e-08
0, 9, 30, 1.838317942315371e-08
0, 9, 31, 2.597043691210388e-09
0, 9, 32, 1.636829338735879e-08
0, 9, 33, 9.373501974607734e-09
0, 9, 34, 5.532776015115815e-09
0, 9, 35, 1.134706195671242e-08
0, 9, 36, 6.327504742387191e-09
0, 9, 37, 1.109621550199336e-08
0, 9, 38, 2.993283843011341e-08
0, 9, 39, 1.058987209034967e-08
0, 9, 40, 8.83247786021002e-09
0, 9, 41, 3.445175877914153e-08
0, 9, 42, 9.421805557963125e-09
0, 9, 43, 9.893365238156093e-09
0, 9, 44, 9.54002921105257e-09
0, 9, 45, 8.964037512271261e-09
0, 9, 46, 6.838354771332433e-09
0, 9, 47, 3.425972838755342e-09
0, 9, 48, 1.274069028056601e-08
0, 9, 49, 1.563356555323026e-08
0, 10, 0, 4.888071281072826e-09
0, 10, 1, 5.325029306391116e-09
0, 10, 2, 1.053680964702153e-08
0, 10, 3, 1.01200390290046e-08
0, 10, 4, 5.445387252223099e-09
0, 10, 5, 2.763062845190234e-08
0, 10, 6, 2.989615666137979e-08
0, 10, 7, 2.277566579778068e-09
0, 10, 8, 5.848653561457695e-09
0, 10, 9, 1.71581273633592e-08
0, 10, 10, 9.869366657255796e-09
0, 10, 11, 1.291005347070495e-08
0, 10, 12, 6.762121973480362e-09
0, 10, 13, 7.455055239802277e-09
0, 10, 14, 2.476084937086398e-08
0, 10, 15, 2.217862160591721e-08
0, 10, 16, 1.740500010782853e-08
0, 10, 17, 5.619845033777437e-09
0, 10, 18, 8.935137074672639e-09
0, 10, 19, 3.736888842809094e-08
0, 10, 20, 7.013804648181576e-09
0, 10, 21, 2.168349766407118e-08
0, 10, 22, 1.523823556226489e-08
0, 10, 23, 5.094137556227452e-09
0, 10, 24, 8.731608325263096e-09
0, 10, 25, 2.342154559187293e-08
0, 10, 26, 2.136976462452367e-08
0, 10, 27, 2.345120364566355e-08
0, 10, 28, 2.150761879704532e-08
0, 10, 29, 7.597400930592357e-09
0, 10, 30, 6.784698580730719e-09
0, 10, 31, 1.699123686194071e-08
0, 10, 32, 1.25407471074368e-08
0, 10, 33, 5.883149523100428e-09
0, 10, 34, 6.26296925432257e-09
0, 10, 35, 1.113412384512458e-08
0, 10, 36, 3.028718253972329e-08
0, 10, 37, 2.033227630704459e-08
0, 10, 38, 1.049537612374252e-08
0, 10, 39, 2.57929926306133e-08
0, 10, 40, 1.093295676213302e-08
0, 10, 41, 1.451841313837576e-08
0, 10, 42, 7.240016142162631e-09
0, 10, 43, 5.685949489020459e-09
0, 10, 44, 5.93074123145243e-09
0, 10, 45, 4.32587299314946e-09
0, 10, 46, 6.436524202513283e-09
0, 10, 47, 8.070675683313766e-09
0, 10, 48, 5.842163974811854e-10
0, 10, 49, 1.713466346586756e-08
0, 11, 0, 9.373408715873666e-09
0, 11, 1, 1.99979357518032e-08
0, 11, 2, 2.791116493483514e-08
0, 11, 3, 2.762583717341727e-09
0, 11, 4, 1.844483143997877e-08
0, 11, 5, 1.9390624217408e-08
0, 11, 6, 1.381666958621963e-08
0, 11, 7, 2.715114000295671e-08
0, 11, 8, 8.273488560917031e-09
0, 11, 9, 2.760649309152541e-08
0, 11, 10, 2.447541547212495e-08
0, 11, 11, 3.922023594782331e-09
0, 11, 12, 2.746373795048385e-08
0, 11, 13, 2.626192596721921e-08
0, 11, 14, 2.132338572380377e-08
0, 11, 15, 2.678289590107852e-08
0, 11, 16, 1.437538177384567e-08
0, 11, 17, 1.073055777567333e-08
0, 11, 18, 2.883854399726715e-08
0, 11, 19, 8.287177166721449e-09
0, 11, 20, 3.739308240824357e-08
0, 11, 21, 1.965167761852626e-08
0, 11, 22, 2.933761145129665e-08
0, 11, 23, 1.904927593443517e-08
0, 11, 24, 1.045216624362411e-08
0, 11, 25, 1.198502097565779e-08
0, 11, 26, 1.022686646479087e-08
0, 11, 27, 3.624291755599529e-09
0, 11, 28, 1.522472103943073e-08
0, 11, 29, 1.841355068421535e-09
0, 11, 30, 1.156999474005715e-08
0, 11, 31, 1.978082808662407e-09
0, 11, 32, 1.159294438224379e-08
0, 11, 33, 6.436292387945741e-09
0, 11, 34, 1.330512677810702e-08
0, 11, 35, 5.974977401734805e-09
0, 11, 36, 1.748178668492528e-08
0, 11, 37, 3.986895258378809e-09
0, 11, 38, 6.778414274322131e-09
0, 11, 39, 6.383559458811305e-09
0, 11, 40, 6.537446584076179e-09
0, 11, 41, 1.839849383955539e-09
0, 11, 42, 2.059899273376686e-08
0, 11, 43, 2.761878370449722e-08
0, 11, 44, 4.754948879082121e-09
0, 11, 45, 6.890310100260422e-09
0, 11, 46, 2.481223582151415e-08
0, 11, 47, 1.247395253756167e-08
0, 11, 48, 2.963762124608138e-09
0, 11, 49, 1.154462569985526e-08
0, 12, 0, 7.80916309395252e-09
0, 12, 1, 2.532741127936333e-08
0, 12, 2, 1.677526029197907e-08
0, 12, 3, 1.851892506010699e-08
0, 12, 4, 7.965336834558912e-09
0, 12, 5, 4.923335961137809e-09
0, 12, 6, 1.893787526796586e-08
0, 12, 7, 3.731823028374492e-08
0, 12, 8, 1.250343295566836e-08
0, 12, 9, 2.198598636482529e-08
0, 12, 10, 7.091686349269821e-09
0, 12, 11, 2.839758828088179e-08
0, 12, 12, 1.198576704553034e-08
0, 12, 13, 1.051858333767086e-08
0, 12, 14, 1.017073003595215e-08
0, 12, 15, 1.0674267691968e-08
0, 12, 16, 1.09107380907858e-08
0, 12, 17, 2.557152001259055e-08
0, 12, 18, 5.685486303974585e-09
0, 12, 19, 1.154278006509912e-08
0, 12, 20, 2.15244657653102e-08
0, 12, 21, 2.762709172543509e-08
0, 12, 22, 2.713770541618032e-08
0, 12, 23, 2.227665518717004e-08
0, 12, 24, 2.301362655998673e-08
0, 12, 25, 1.349402456440885e-08
0, 12, 26, 1.438172247958391e-08
0, 12, 27, 7.68553665153604e-09
0, 12, 28, 1.496533919009835e-08
0, 12, 29, 1.494232826360076e-08
0, 12, 30, 4.574424039560654e-08
0, 12, 31, 1.950310135612199e-08
0, 12, 32, 2.920405428596951e-08
0, 12, 33, 2.15977244977239e-08
0, 12, 34, 1.785311809499035e-08
0, 12, 35, 1.342798405801204e-08
0, 12, 36, 7.296035775539167e-09
0, 12, 37, 7.471706808814815e-09
0, 12, 38, 1.434544572020968e-08
0, 12, 39, 3.284685945459387e-08
0, 12, 40, 1.838226459938141e-08
0, 12, 41, 2.22152252149499e-09
0, 12, 42, 1.552929163040062e-08
0, 12, 43, 3.077913701687862e-09
0, 12, 44, 6.39601394070155e-09
0, 12, 45, 3.340916165939234e-08
0, 12, 46, 7.245731570293401e-09
0, 12, 47, 1.825521955822751e-08
0, 12, 48, 1.672449023715217e-08
0, 12, 49, 3.799156900186063e-08
0, 13, 0, 1.848724373587629e-08
0, 13, 1, 1.211817668433923e-08
0, 13, 2, 8.870097545354838e-09
0, 13, 3, 3.1593838656363e-08
0, 13, 4, 2.063619142234074e-08
0, 13, 5, 2.606656224202197e-08
0, 13, 6, 7.737956941866742e-09
0, 13, 7, 3.456084751718436e-09
0, 13, 8, 1.285623696389848e-08
0, 13, 9, 4.411084475464122e-08
0, 13, 10, 1.855842235443106e-08
0, 13, 11, 6.923589257468166e-09
0, 13, 12, 9.330245909211499e-09
0, 13, 13, 1.26016477253188e-08
0, 13, 14, 1.855192977018305e-08
0, 13, 15, 1.368140356561298e-08
0, 13, 16, 1.634975710373965e-08
0, 13, 17, 2.135949372927826e-08
0, 13, 18, 2.122938802529006e-08
0, 13, 19, 3.58199585548391e-08
0, 13, 20, 3.846334806212326e-08
0, 13, 21, 1.260672188863055e-08
0, 13, 22, 2.319107750281546e-08
0, 13, 23, 2.520891229096378e-08
0, 13, 24, 2.852630132110789e-08
0, 13, 25, 7.650326594443868e-09
0, 13, 26, 3.637835277459089e-08
0, 13, 27, 2.184662584170383e-08
0, 13, 28, 2.063096182780555e-08
0, 13, 29, 5.942454084362225e-09
0, 13, 30, 8.562746067752869e-09
0, 13, 31, 2.271459109692842e-08
0, 13, 32, 1.291743512155108e-08
0, 13, 33, 1.525911663691204e-08
0, 13, 34, 2.313878333382036e-08
0, 13, 35, 1.539159200092399e-08
0, 13, 36, 1.412933414712825e-08
0, 13, 37, 9.640895193285814e-09
0, 13, 38, 1.428747520293427e-08
0, 13, 39, 9.971365955152578e-09
0, 13, 40, 4.705865919163443e-09
0, 13, 41, 1.27415056283553e-08
0, 13, 42, 1.768116142386589e-08
0, 13, 43, 8.087537750611773e-09
0, 13, 44, 1.733323173880308e-08
0, 13, 45, 1.448419606475682e-08
0, 13, 46, 1.94942426645639e-08
0, 13, 47, 1.78283414697944e-08
0, 13, 48, 2.265717213845164e-08
0, 13, 49, 4.178259960241348e-09
0, 14, 0, 3.003377324617418e-09
0, 14, 1, 1.473021349340797e-08
0, 14, 2, 2.410260080409898e-08
0, 14, 3, 2.167803536679003e-08
0, 14, 4, 9.930212208075773e-09
0, 14, 5, 7.113588829099626e-09
0, 14, 6, 1.647697267515014e-08
0, 14, 7, 9.993919469764023e-09
0, 14, 8, 2.994876524553547e-08
0, 14, 9, 3.062648801233081e-08
0, 14, 10, 1.559198281597673e-08
0, 14, 11, 2.384964581381155e-08
0, 14, 12, 1.081870415475805e-08
0, 14, 13, 1.995079657035603e-08
0, 14, 14, 3.34510481536654e-08
0, 14, 15, 2.509290375485307e-08
0, 14, 16, 2.367740492559278e-08
0, 14, 17, 2.301767665358057e-08
0, 14, 18, 2.001875465396097e-08
0, 14, 19, 1.475716793208903e-08
0, 14, 20, 7.511429700457484e-09
0, 14, 21, 1.698850304876487e-08
0, 14, 22, 1.796848003721152e-08
0, 14, 23, 2.614830130198698e-08
0, 14, 24, 1.345610645131501e-08
0, 14, 25, 1.939709726173078e-08
0, 14, 26, 2.531213461054449e-08
0, 14, 27, 1.42327118979324e-08
0, 14, 28, 1.152461148734574e-08
0, 14, 29, 1.824387041438058e-08
0, 14, 30, 5.114819678908589e-09
0, 14, 31, 1.262636573073905e-08
0, 14, 32, 3.441558860117766e-08
0, 14, 33, 2.311898228413156e-08
0, 14, 34, 1.270614813364546e-08
0, 14, 35, 1.475177136001093e-08
0, 14, 36, 1.911246627628316e-08
0, 14, 37, 1.267553972894575e-08
0, 14, 38, 2.705950308268257e-08
0, 14, 39, 2.822740929886436e-09
0, 14, 40, 3.831215167338087e-08
0, 14, 41, 1.272739247326626e-08
0, 14, 42, 2.748028116172918e-08
0, 14, 43, 4.40587166750106e-09
0, 14, 44, 5.351428189470653e-09
0, 14, 45, 1.610471223045806e-08
0, 14, 46, 5.977934147693986e-09
0, 14, 47, 8.783378468990577e-09
0, 14, 48, 1.116975845150137e-08
0, 14, 49, 5.883859621746979e-09
0, 15, 0, 5.649305023780471e-09
0, 15, 1, 1.549314099236199e-08
0, 15, 2, 2.68906164002658e-09
0, 15, 3, 1.32456001722403e-08
0, 15, 4, 1.684030515036739e-08
0, 15, 5, 1.994841092312072e-08
0, 15, 6, 1.91245330682932e-08
0, 15, 7, 2.010248500994294e-08
0, 15, 8, 1.288553619360755e-08
0, 15, 9, 2.08926280720334e-08
0, 15, 10, 3.076130994372761e-08
0, 15, 11, 1.385033510103995e-08
0, 15, 12, 1.58421844531631e-08
0, 15, 13, 1.237337077242273e-08
0, 15, 14, 1.738952448704367e-08
0, 15, 15, 1.297248086729041e-08
0, 15, 16, 3.097767375948024e-08
0, 15, 17, 1.725713971723053e-08
0, 15, 18, 7.264492118963517e-09
0, 15, 19, 2.457352543672187e-08
0, 15, 20, 1.285176143284161e-08
0, 15, 21, 2.638312857072833e-08
0, 15, 22, 4.389423224893108e-08
0, 15, 23, 1.038129227026729e-08
0, 15, 24, 1.035244512337385e-08
0, 15, 25, 2.036936663785127e-08
0, 15, 26, 1.020442486066031e-08
0, 15, 27, 1.694527362872122e-08
0, 15, 28, 3.66281867059115e-08
0, 15, 29, 1.513422276389065e-08
0, 15, 30, 5.724219764857708e-09
0, 15, 31, 4.105170603452279e-08
0, 15, 32, 1.612049693733297e-08
0, 15, 33, 1.565402030223595e-08
0, 15, 34, 1.114830627813035e-08
0, 15, 35, 2.052765779581023e-08
0, 15, 36, 2.67926516528405e-08
0, 15, 37, 1.287527151561108e-08
0, 15, 38, 1.484146494590277e-08
0, 15, 39, 2.067452165022132e-08
0, 15, 40, 1.565366147815439e-08
0, 15, 41, 9.393168909355154e-09
0, 15, 42, 1.506979074861192e-08
0, 15, 43, 4.084939320136982e-08
0, 15, 44, 7.963574688574226e-09
0, 15, 45, 1.873489630099812e-08
0, 15, 46, 2.401885978997598e-08
0, 15, 47, 1.111539926768046e-08
0, 15, 48, 1.271057570306766e-08
0, 15, 49, 9.761238928263083e-09
0, 16, 0, 6.227395932256741e-09
0, 16, 1, 1.108537706073776e-08
0, 16, 2, 1.053665865669018e-08
0, 16, 3, 1.741395472265594e-08
0, 16, 4, 4.494419503231484e-09
0, 16, 5, 1.325572807076014e-08
0, 16, 6, 2.086468064987912e-08
0, 16, 7, 2.095439377569619e-08
0, 16, 8, 1.477477962197327e-08
0, 16, 9, 3.395668102257332e-08
0, 16, 10, 3.276844395827538e-08
0, 16, 11, 1.555484807624907e-08
0, 16, 12, 2.472064508651783e-08
0, 16, 13, 2.326253145668034e-08
0, 16, 14, 2.392721931698816e-08
0, 16, 15, 2.280850175395699e-08
0, 16, 16, 1.025329510184747e-08
0, 16, 17, 1.00294590410499e-08
0, 16, 18, 2.2571391866677e-08
0, 16, 19, 1.242107483534483e-08
0, 16, 20, 3.188264940945373e-08
0, 16, 21, 1.89081390544743e-08
0, 16, 22, 1.68141927048282e-08
0, 16, 23, 2.566926227132171e-08
0, 16, 24, 7.493597742325164e-09
0, 16, 25, 2.007021393524155e-08
0, 16, 26, 2.60587817990654e-08
0, 16, 27, 2.179221958442668e-08
0, 16, 28, 1.567478058461802e-08
0, 16, 29, 2.557693079552337e-08
0, 16, 30, 2.609549198950845e-08
0, 16, 31, 1.247754166655568e-08
0, 16, 32, 2.927067477287437e-08
0, 16, 33, 7.117173517201536e-09
0, 16, 34, 3.418259097998089e-08
0, 16, 35, 1.967291929361181e-08
0, 16, 36, 1.775028302120063e-08
0, 16, 37, 4.963615074515815e-10
0, 16, 38, 2.220888895010376e-08
0, 16, 39, 7.384736822046989e-09
0, 16, 40, 1.86860820150514e-08
0, 16, 41, 1.980534847234594e-08
0, 16, 42, 1.042393549255394e-08
0, 16, 43, 2.568188861573617e-08
0, 16, 44, 1.820605532998343e-08
0, 16, 45, 9.304930159714786e-09
0, 16, 46, 4.222039162726787e-09
0, 16, 47, 4.53500748065494e-09
0, 16, 48, 4.732660485728957e-08
0, 16, 49, 9.449755644652669e-09
0, 17, 0, 1.686475670226173e-08
0, 17, 1, 2.326262293905756e-09
0, 17, 2, 3.681894611418102e-08
0, 17, 3, 3.463733522224288e-09
0, 17, 4, 1.44294034498671e-08
0, 17, 5, 2.289617384576559e-08
0, 17, 6, 6.835831012352855e-09
0, 17, 7, 2.343902139045895e-08
0, 17, 8, 3.811015503174531e-08
0, 17, 9, 1.934257909397274e-08
0, 17, 10, 1.175866337632669e-08
0, 17, 11, 1.621689804665039e-08
0, 17, 12, 2.586534186832523e-08
0, 17, 13, 1.862662735163667e-08
0, 17, 14, 1.573110530728172e-08
0, 17, 15, 1.775812741300342e-08
0, 17, 16, 1.094875035079212e-08
0, 17, 17, 3.682642102376121e-08
0, 17, 18, 1.378647951355561e-08
0, 17, 19, 2.818082300848346e-08
0, 17, 20, 1.437267282966559e-08
0, 17, 21, 1.861615039899789e-08
0, 17, 22, 3.967897654888475e-08
0, 17, 23, 1.057858689534896e-08
0, 17, 24, 3.232078427117813e-08
0, 17, 25, 1.826014184302949e-08
0, 17, 26, 1.65707429999884e-08
0, 17, 27, 7.130931400922691e-09
0, 17, 28, 1.876128941091793e-08
0, 17, 29, 3.135605552984089e-08
0, 17, 30, 6.779729222472497e-09
0, 17, 31, 1.35858559957569e-08
0, 17, 32, 1.451765019311324e-08
0, 17, 33, 2.923039588154097e-08
0, 17, 34, 9.901369502074431e-09
0, 17, 35, 1.682432149152646e-08
0, 17, 36, 1.743333832848748e-08
0, 17, 37, 2.013453226368256e-08
0, 17, 38, 7.915123667601165e-09
0, 17, 39, 3.374017154555986e-08
0, 17, 40, 1.819375228251374e-08
0, 17, 41, 2.042240332400524e-08
0, 17, 42, 1.390469250850401e-08
0, 17, 43, 2.23768008567049e-08
0, 17, 44, 2.133289989103559e-08
0, 17, 45, 2.376584973262652e-08
0, 17, 46, 2.440110336010548e-08
0, 17, 47, 1.001707694570086e-08
0, 17, 48, 7.980636596016666e-09
0, 17, 49, 2.479857430515153e-09
0, 18, 0, 3.658044533949578e-09
0, 18, 1, 1.29848558572121e-08
0, 18, 2, 2.171104718229344e-08
0, 18, 3, 4.130854236450432e-08
0, 18, 4, 3.118914193578348e-08
0, 18, 5, 6.826294196571325e-09
0, 18, 6, 1.639376456807895e-08
0, 18, 7, 1.637733504367134e-08
0, 18, 8, 2.547198718616528e-08
0, 18, 9, 1.704313312700378e-08
0, 18, 10, 1.677600813820845e-08
0, 18, 11, 5.769423605528345e-09
0, 18, 12, 2.318535941014943e-08
0, 18, 13, 2.348626892967332e-08
0, 18, 14, 1.47378207415727e-08
0, 18, 15, 2.355949213495023e-08
0, 18, 16, 1.252402448415069e-08
0, 18, 17, 1.813994465749147e-08
0, 18, 18, 2.075032590198589e-08
0, 18, 19, 2.126554399239922e-08
0, 18, 20, 3.790061242625598e-08
0, 18, 21, 2.556657108243598e-08
0, 18, 22, 8.019834574213291e-09
0, 18, 23, 3.195190956262195e-08
0, 18, 24, 2.426838463520653e-08
0, 18, 25, 1.642969138515582e-08
0, 18, 26, 2.54020839918212e-08
0, 18, 27, 2.324637193851231e-08
