# TOPAS Version: 3.7
# Parameter File: TestingDose4.txt
# Results for scorer TestingDose4Fluence
# Scored in component: Phantom
# X in 50 bins of 0.1 cm
# Y in 50 bins of 0.1 cm
# Z in 50 bins of 0.1 cm
# Fluence ( /mm2 ) : Sum   
0, 0, 0, 197.9660186767578
0, 0, 1, 240.0668792724609
0, 0, 2, 270.0342407226562
0, 0, 3, 249.2294616699219
0, 0, 4, 243.7312469482422
0, 0, 5, 242.8705444335938
0, 0, 6, 259.4071655273438
0, 0, 7, 248.5049896240234
0, 0, 8, 260.1808471679688
0, 0, 9, 252.75
0, 0, 10, 273.4613952636719
0, 0, 11, 283.638671875
0, 0, 12, 260.205810546875
0, 0, 13, 272.6706237792969
0, 0, 14, 258.970947265625
0, 0, 15, 303.6037902832031
0, 0, 16, 278.6081848144531
0, 0, 17, 300.0885314941406
0, 0, 18, 272.9733581542969
0, 0, 19, 256.4337463378906
0, 0, 20, 291.89990234375
0, 0, 21, 267.4017944335938
0, 0, 22, 299.20361328125
0, 0, 23, 298.3013916015625
0, 0, 24, 308.655029296875
0, 0, 25, 254.7524871826172
0, 0, 26, 289.7223510742188
0, 0, 27, 277.3065185546875
0, 0, 28, 314.9480285644531
0, 0, 29, 268.1733093261719
0, 0, 30, 295.3505554199219
0, 0, 31, 265.5675964355469
0, 0, 32, 265.3292541503906
0, 0, 33, 255.6385040283203
0, 0, 34, 256.7015991210938
0, 0, 35, 257.0950012207031
0, 0, 36, 266.6521301269531
0, 0, 37, 242.2540130615234
0, 0, 38, 252.7971649169922
0, 0, 39, 256.8804321289062
0, 0, 40, 229.6074676513672
0, 0, 41, 213.5620880126953
0, 0, 42, 220.9183044433594
0, 0, 43, 230.494873046875
0, 0, 44, 219.6765747070312
0, 0, 45, 222.7588500976562
0, 0, 46, 208.1812744140625
0, 0, 47, 214.7752227783203
0, 0, 48, 195.2264404296875
0, 0, 49, 200.6174011230469
0, 1, 0, 230.0936889648438
0, 1, 1, 221.2443237304688
0, 1, 2, 232.6696319580078
0, 1, 3, 229.4594268798828
0, 1, 4, 266.07763671875
0, 1, 5, 284.424072265625
0, 1, 6, 277.6568603515625
0, 1, 7, 280.8302917480469
0, 1, 8, 281.29443359375
0, 1, 9, 259.2453918457031
0, 1, 10, 277.7461853027344
0, 1, 11, 293.5790405273438
0, 1, 12, 301.1943054199219
0, 1, 13, 278.3246154785156
0, 1, 14, 277.1239929199219
0, 1, 15, 306.8782653808594
0, 1, 16, 290.4920043945312
0, 1, 17, 296.7558288574219
0, 1, 18, 300.2889709472656
0, 1, 19, 270.5231018066406
0, 1, 20, 276.3242492675781
0, 1, 21, 290.0197143554688
0, 1, 22, 283.005859375
0, 1, 23, 276.3965759277344
0, 1, 24, 309.3519287109375
0, 1, 25, 315.0340576171875
0, 1, 26, 283.8754272460938
0, 1, 27, 290.3017578125
0, 1, 28, 300.4154968261719
0, 1, 29, 280.2505493164062
0, 1, 30, 285.2476806640625
0, 1, 31, 310.36767578125
0, 1, 32, 275.6754455566406
0, 1, 33, 261.8006896972656
0, 1, 34, 288.347412109375
0, 1, 35, 293.7558898925781
0, 1, 36, 245.1488189697266
0, 1, 37, 272.509765625
0, 1, 38, 262.1067504882812
0, 1, 39, 245.2051086425781
0, 1, 40, 271.86767578125
0, 1, 41, 257.2134704589844
0, 1, 42, 273.6180114746094
0, 1, 43, 228.9079895019531
0, 1, 44, 208.6803283691406
0, 1, 45, 258.4209289550781
0, 1, 46, 233.8310852050781
0, 1, 47, 224.0948791503906
0, 1, 48, 209.0022430419922
0, 1, 49, 203.5044250488281
0, 2, 0, 229.2676696777344
0, 2, 1, 233.7832641601562
0, 2, 2, 251.3948822021484
0, 2, 3, 238.8070068359375
0, 2, 4, 256.6178894042969
0, 2, 5, 279.0326232910156
0, 2, 6, 263.8177185058594
0, 2, 7, 279.4532775878906
0, 2, 8, 279.7238464355469
0, 2, 9, 284.2304077148438
0, 2, 10, 280.66650390625
0, 2, 11, 316.9239196777344
0, 2, 12, 305.9635620117188
0, 2, 13, 281.5182800292969
0, 2, 14, 303.8651733398438
0, 2, 15, 303.6842651367188
0, 2, 16, 309.3040466308594
0, 2, 17, 329.244140625
0, 2, 18, 300.9642028808594
0, 2, 19, 299.7940673828125
0, 2, 20, 340.6640625
0, 2, 21, 320.6844482421875
0, 2, 22, 339.0875854492188
0, 2, 23, 330.8123474121094
0, 2, 24, 305.1802062988281
0, 2, 25, 320.6499633789062
0, 2, 26, 298.6225891113281
0, 2, 27, 292.6687316894531
0, 2, 28, 335.9474792480469
0, 2, 29, 321.6797790527344
0, 2, 30, 320.6390686035156
0, 2, 31, 324.3396606445312
0, 2, 32, 335.1510314941406
0, 2, 33, 276.4729614257812
0, 2, 34, 296.2378540039062
0, 2, 35, 301.1557312011719
0, 2, 36, 277.3115844726562
0, 2, 37, 258.2758483886719
0, 2, 38, 263.8661804199219
0, 2, 39, 256.0043029785156
0, 2, 40, 277.0126037597656
0, 2, 41, 252.1750640869141
0, 2, 42, 277.6107788085938
0, 2, 43, 240.4682006835938
0, 2, 44, 225.4201354980469
0, 2, 45, 243.6145935058594
0, 2, 46, 252.9623107910156
0, 2, 47, 235.0388031005859
0, 2, 48, 211.9027252197266
0, 2, 49, 205.3083190917969
0, 3, 0, 242.9754028320312
0, 3, 1, 269.3629150390625
0, 3, 2, 243.8433685302734
0, 3, 3, 281.0100708007812
0, 3, 4, 276.4713745117188
0, 3, 5, 268.5166931152344
0, 3, 6, 294.4859619140625
0, 3, 7, 289.9248352050781
0, 3, 8, 296.233642578125
0, 3, 9, 302.5697937011719
0, 3, 10, 300.2390441894531
0, 3, 11, 324.9892578125
0, 3, 12, 318.0805358886719
0, 3, 13, 291.0821228027344
0, 3, 14, 327.8788757324219
0, 3, 15, 285.9031677246094
0, 3, 16, 288.2174072265625
0, 3, 17, 311.6915893554688
0, 3, 18, 304.4862976074219
0, 3, 19, 330.3162231445312
0, 3, 20, 355.7214965820312
0, 3, 21, 326.5867919921875
0, 3, 22, 297.7452087402344
0, 3, 23, 348.5083923339844
0, 3, 24, 369.7600402832031
0, 3, 25, 328.4297485351562
0, 3, 26, 324.3406982421875
0, 3, 27, 288.5745544433594
0, 3, 28, 327.9652709960938
0, 3, 29, 336.7610168457031
0, 3, 30, 301.5531616210938
0, 3, 31, 332.1031494140625
0, 3, 32, 314.0858154296875
0, 3, 33, 290.3489379882812
0, 3, 34, 306.0304260253906
0, 3, 35, 308.6439208984375
0, 3, 36, 312.5126647949219
0, 3, 37, 290.333740234375
0, 3, 38, 290.2593078613281
0, 3, 39, 295.8374328613281
0, 3, 40, 247.5272369384766
0, 3, 41, 266.7077941894531
0, 3, 42, 252.7862854003906
0, 3, 43, 292.4225769042969
0, 3, 44, 246.7616424560547
0, 3, 45, 234.2104644775391
0, 3, 46, 224.2461700439453
0, 3, 47, 204.7847137451172
0, 3, 48, 204.2317352294922
0, 3, 49, 211.6331329345703
0, 4, 0, 277.02978515625
0, 4, 1, 273.0619506835938
0, 4, 2, 257.3752746582031
0, 4, 3, 268.103515625
0, 4, 4, 261.9633483886719
0, 4, 5, 264.8302612304688
0, 4, 6, 320.7324829101562
0, 4, 7, 308.3759765625
0, 4, 8, 311.3732604980469
0, 4, 9, 322.6976318359375
0, 4, 10, 298.9452514648438
0, 4, 11, 323.193115234375
0, 4, 12, 340.2598266601562
0, 4, 13, 332.51025390625
0, 4, 14, 334.5666809082031
0, 4, 15, 348.1839294433594
0, 4, 16, 379.7259216308594
0, 4, 17, 330.2379455566406
0, 4, 18, 351.7677307128906
0, 4, 19, 324.5520935058594
0, 4, 20, 362.4783325195312
0, 4, 21, 336.0610961914062
0, 4, 22, 365.7815246582031
0, 4, 23, 356.5768432617188
0, 4, 24, 353.8468933105469
0, 4, 25, 380.5030822753906
0, 4, 26, 346.8891296386719
0, 4, 27, 355.5009765625
0, 4, 28, 347.4393615722656
0, 4, 29, 326.7159729003906
0, 4, 30, 299.281494140625
0, 4, 31, 319.4035034179688
0, 4, 32, 313.5469970703125
0, 4, 33, 348.5163879394531
0, 4, 34, 298.9871826171875
0, 4, 35, 316.9377136230469
0, 4, 36, 290.3610229492188
0, 4, 37, 336.8201599121094
0, 4, 38, 295.29931640625
0, 4, 39, 286.6505126953125
0, 4, 40, 281.1532592773438
0, 4, 41, 267.7993469238281
0, 4, 42, 281.9552612304688
0, 4, 43, 295.7451782226562
0, 4, 44, 248.3294830322266
0, 4, 45, 259.2608032226562
0, 4, 46, 244.2664184570312
0, 4, 47, 253.6168823242188
0, 4, 48, 229.0023651123047
0, 4, 49, 212.1175994873047
0, 5, 0, 276.2309265136719
0, 5, 1, 278.1741943359375
0, 5, 2, 274.190185546875
0, 5, 3, 256.5127563476562
0, 5, 4, 279.0347900390625
0, 5, 5, 295.0254516601562
0, 5, 6, 278.9654541015625
0, 5, 7, 282.4857177734375
0, 5, 8, 330.5373229980469
0, 5, 9, 337.3601379394531
0, 5, 10, 331.5884094238281
0, 5, 11, 346.5696105957031
0, 5, 12, 337.2513122558594
0, 5, 13, 355.70068359375
0, 5, 14, 331.1104125976562
0, 5, 15, 343.9101257324219
0, 5, 16, 360.3255920410156
0, 5, 17, 329.3009643554688
0, 5, 18, 374.6214294433594
0, 5, 19, 370.203857421875
0, 5, 20, 356.4800109863281
0, 5, 21, 355.25439453125
0, 5, 22, 373.547607421875
0, 5, 23, 378.4020690917969
0, 5, 24, 358.9493713378906
0, 5, 25, 384.2466430664062
0, 5, 26, 358.8768920898438
0, 5, 27, 347.6393737792969
0, 5, 28, 336.8377990722656
0, 5, 29, 325.3551940917969
0, 5, 30, 341.3641357421875
0, 5, 31, 345.7938232421875
0, 5, 32, 334.4098815917969
0, 5, 33, 332.6952819824219
0, 5, 34, 324.6128234863281
0, 5, 35, 322.9327392578125
0, 5, 36, 298.7510986328125
0, 5, 37, 317.0415954589844
0, 5, 38, 323.2310791015625
0, 5, 39, 298.8318176269531
0, 5, 40, 316.043212890625
0, 5, 41, 288.0601806640625
0, 5, 42, 294.4420166015625
0, 5, 43, 276.3496398925781
0, 5, 44, 269.2190246582031
0, 5, 45, 269.669189453125
0, 5, 46, 273.837158203125
0, 5, 47, 259.3186645507812
0, 5, 48, 237.2767333984375
0, 5, 49, 226.1761016845703
0, 6, 0, 288.1656188964844
0, 6, 1, 284.1807250976562
0, 6, 2, 319.7107849121094
0, 6, 3, 296.048828125
0, 6, 4, 283.4761047363281
0, 6, 5, 316.7305603027344
0, 6, 6, 328.2116088867188
0, 6, 7, 318.6307373046875
0, 6, 8, 309.0396118164062
0, 6, 9, 294.8254699707031
0, 6, 10, 331.8874816894531
0, 6, 11, 357.963623046875
0, 6, 12, 354.0438537597656
0, 6, 13, 335.9520263671875
0, 6, 14, 393.90478515625
0, 6, 15, 362.0202331542969
0, 6, 16, 349.7159729003906
0, 6, 17, 338.9863586425781
0, 6, 18, 357.8967895507812
0, 6, 19, 341.9821166992188
0, 6, 20, 376.5176391601562
0, 6, 21, 361.4786376953125
0, 6, 22, 353.4287109375
0, 6, 23, 373.0562744140625
0, 6, 24, 381.9884338378906
0, 6, 25, 359.2133178710938
0, 6, 26, 398.8581237792969
0, 6, 27, 372.0412292480469
0, 6, 28, 371.0652770996094
0, 6, 29, 380.6747131347656
0, 6, 30, 351.615966796875
0, 6, 31, 371.0387878417969
0, 6, 32, 366.8698120117188
0, 6, 33, 330.8667297363281
0, 6, 34, 354.4049377441406
0, 6, 35, 315.6976623535156
0, 6, 36, 341.7905883789062
0, 6, 37, 348.55712890625
0, 6, 38, 304.5384216308594
0, 6, 39, 345.9216918945312
0, 6, 40, 347.8305358886719
0, 6, 41, 308.8066711425781
0, 6, 42, 294.3182067871094
0, 6, 43, 274.7703552246094
0, 6, 44, 267.7116394042969
0, 6, 45, 275.14794921875
0, 6, 46, 257.0320739746094
0, 6, 47, 289.0273742675781
0, 6, 48, 251.0289459228516
0, 6, 49, 241.8584594726562
0, 7, 0, 270.0494079589844
0, 7, 1, 286.5337524414062
0, 7, 2, 309.527587890625
0, 7, 3, 313.4362182617188
0, 7, 4, 302.5028076171875
0, 7, 5, 322.3944091796875
0, 7, 6, 310.7218933105469
0, 7, 7, 331.1507263183594
0, 7, 8, 349.1551513671875
0, 7, 9, 346.8381652832031
0, 7, 10, 374.6916809082031
0, 7, 11, 385.8062438964844
0, 7, 12, 375.2128601074219
0, 7, 13, 359.4114990234375
0, 7, 14, 376.0331420898438
0, 7, 15, 383.3029174804688
0, 7, 16, 363.6718139648438
0, 7, 17, 364.3565673828125
0, 7, 18, 372.444580078125
0, 7, 19, 384.1052856445312
0, 7, 20, 420.2942504882812
0, 7, 21, 403.0499572753906
0, 7, 22, 359.3106384277344
0, 7, 23, 374.0239562988281
0, 7, 24, 406.8190612792969
0, 7, 25, 390.3967590332031
0, 7, 26, 365.0226135253906
0, 7, 27, 407.79248046875
0, 7, 28, 344.69970703125
0, 7, 29, 371.7359619140625
0, 7, 30, 354.9877624511719
0, 7, 31, 344.5596313476562
0, 7, 32, 369.8585205078125
0, 7, 33, 367.302978515625
0, 7, 34, 343.7183227539062
0, 7, 35, 326.8571472167969
0, 7, 36, 380.0108337402344
0, 7, 37, 352.7697448730469
0, 7, 38, 349.0999450683594
0, 7, 39, 341.6062316894531
0, 7, 40, 327.77978515625
0, 7, 41, 311.9959411621094
0, 7, 42, 308.5809326171875
0, 7, 43, 282.3922119140625
0, 7, 44, 307.2586975097656
0, 7, 45, 296.2607727050781
0, 7, 46, 252.7454986572266
0, 7, 47, 262.1589050292969
0, 7, 48, 291.1533203125
0, 7, 49, 247.5191040039062
0, 8, 0, 286.9123840332031
0, 8, 1, 305.2823791503906
0, 8, 2, 301.9239501953125
0, 8, 3, 313.9836120605469
0, 8, 4, 316.8153076171875
0, 8, 5, 345.6977844238281
0, 8, 6, 364.6046752929688
0, 8, 7, 370.6652526855469
0, 8, 8, 368.2371520996094
0, 8, 9, 353.5340576171875
0, 8, 10, 357.3549499511719
0, 8, 11, 353.7162170410156
0, 8, 12, 386.5929260253906
0, 8, 13, 402.3654174804688
0, 8, 14, 383.9131469726562
0, 8, 15, 407.6690368652344
0, 8, 16, 354.5760498046875
0, 8, 17, 419.6162719726562
0, 8, 18, 389.2815246582031
0, 8, 19, 398.6780090332031
0, 8, 20, 409.0607299804688
0, 8, 21, 416.2647399902344
0, 8, 22, 391.5591430664062
0, 8, 23, 381.1060180664062
0, 8, 24, 408.6473999023438
0, 8, 25, 446.4202575683594
0, 8, 26, 411.3382873535156
0, 8, 27, 385.3009643554688
0, 8, 28, 384.6485595703125
0, 8, 29, 376.2093200683594
0, 8, 30, 373.2051696777344
0, 8, 31, 368.4422912597656
0, 8, 32, 368.7323608398438
0, 8, 33, 367.3652038574219
0, 8, 34, 351.4588623046875
0, 8, 35, 363.7993469238281
0, 8, 36, 361.2471313476562
0, 8, 37, 338.2557373046875
0, 8, 38, 328.6922302246094
0, 8, 39, 335.0527038574219
0, 8, 40, 344.4378356933594
0, 8, 41, 313.1940002441406
0, 8, 42, 326.8909301757812
0, 8, 43, 365.9687194824219
0, 8, 44, 319.1836547851562
0, 8, 45, 297.9306640625
0, 8, 46, 294.6283264160156
0, 8, 47, 292.060791015625
0, 8, 48, 271.7562866210938
0, 8, 49, 272.1553039550781
0, 9, 0, 273.7869567871094
0, 9, 1, 322.2334899902344
0, 9, 2, 314.4741516113281
0, 9, 3, 328.7753601074219
0, 9, 4, 368.3873291015625
0, 9, 5, 339.9197998046875
0, 9, 6, 349.6422424316406
0, 9, 7, 391.2785034179688
0, 9, 8, 385.0352478027344
0, 9, 9, 338.2854919433594
0, 9, 10, 380.3412780761719
0, 9, 11, 365.1615600585938
0, 9, 12, 386.0078125
0, 9, 13, 389.5750427246094
0, 9, 14, 388.0530395507812
0, 9, 15, 427.3588256835938
0, 9, 16, 391.74853515625
0, 9, 17, 410.8332824707031
0, 9, 18, 456.6140441894531
0, 9, 19, 420.9406433105469
0, 9, 20, 418.1514282226562
0, 9, 21, 406.4358520507812
0, 9, 22, 414.0925903320312
0, 9, 23, 397.0614929199219
0, 9, 24, 374.6380615234375
0, 9, 25, 444.4479064941406
0, 9, 26, 435.75048828125
0, 9, 27, 429.2477416992188
0, 9, 28, 408.4443359375
0, 9, 29, 391.2321166992188
0, 9, 30, 387.79638671875
0, 9, 31, 387.5318298339844
0, 9, 32, 393.0898742675781
0, 9, 33, 337.0096435546875
0, 9, 34, 370.7851867675781
0, 9, 35, 369.8464660644531
0, 9, 36, 400.5314636230469
0, 9, 37, 359.8598327636719
0, 9, 38, 376.0408630371094
0, 9, 39, 336.9710998535156
0, 9, 40, 344.7785339355469
0, 9, 41, 345.9355773925781
0, 9, 42, 349.9614868164062
0, 9, 43, 324.3932800292969
0, 9, 44, 337.8722229003906
0, 9, 45, 330.2389221191406
0, 9, 46, 282.8919982910156
0, 9, 47, 301.4298095703125
0, 9, 48, 289.9349670410156
0, 9, 49, 305.2081298828125
0, 10, 0, 306.7525634765625
0, 10, 1, 337.334228515625
0, 10, 2, 324.1428833007812
0, 10, 3, 341.8046875
0, 10, 4, 362.3241882324219
0, 10, 5, 371.646240234375
0, 10, 6, 356.4436645507812
0, 10, 7, 389.3432312011719
0, 10, 8, 391.1859436035156
0, 10, 9, 369.4837036132812
0, 10, 10, 387.5032958984375
0, 10, 11, 383.97119140625
0, 10, 12, 421.8388061523438
0, 10, 13, 409.3311462402344
0, 10, 14, 406.7556762695312
0, 10, 15, 408.8189086914062
0, 10, 16, 384.2394714355469
0, 10, 17, 404.6422119140625
0, 10, 18, 427.6831970214844
0, 10, 19, 433.5088806152344
0, 10, 20, 445.7273559570312
0, 10, 21, 447.9372863769531
0, 10, 22, 424.19775390625
0, 10, 23, 408.4071655273438
0, 10, 24, 456.40234375
0, 10, 25, 441.3307189941406
0, 10, 26, 475.2262268066406
0, 10, 27, 402.1998901367188
0, 10, 28, 426.9424133300781
0, 10, 29, 437.8150939941406
0, 10, 30, 436.6401977539062
0, 10, 31, 382.5185546875
0, 10, 32, 413.404296875
0, 10, 33, 402.8862609863281
0, 10, 34, 447.9027709960938
0, 10, 35, 401.9814453125
0, 10, 36, 380.2134704589844
0, 10, 37, 388.3265991210938
0, 10, 38, 403.15283203125
0, 10, 39, 373.5779113769531
0, 10, 40, 373.8444213867188
0, 10, 41, 349.5844421386719
0, 10, 42, 352.5756225585938
0, 10, 43, 355.7643432617188
0, 10, 44, 336.74560546875
0, 10, 45, 334.6458740234375
0, 10, 46, 311.7359619140625
0, 10, 47, 317.5750122070312
0, 10, 48, 306.0664978027344
0, 10, 49, 301.9557189941406
0, 11, 0, 291.1035461425781
0, 11, 1, 304.7114562988281
0, 11, 2, 326.3045959472656
0, 11, 3, 363.0796508789062
0, 11, 4, 360.3345031738281
0, 11, 5, 347.8707275390625
0, 11, 6, 397.1885986328125
0, 11, 7, 385.8179321289062
0, 11, 8, 384.0550231933594
0, 11, 9, 374.7525939941406
0, 11, 10, 407.6198120117188
0, 11, 11, 407.5758972167969
0, 11, 12, 411.8854370117188
0, 11, 13, 416.8551940917969
0, 11, 14, 421.5031127929688
0, 11, 15, 398.8677673339844
0, 11, 16, 410.7662658691406
0, 11, 17, 429.9713745117188
0, 11, 18, 424.5169067382812
0, 11, 19, 412.0025634765625
0, 11, 20, 450.2952270507812
0, 11, 21, 437.4468078613281
0, 11, 22, 489.0757751464844
0, 11, 23, 460.9495849609375
0, 11, 24, 438.683349609375
0, 11, 25, 439.7730712890625
0, 11, 26, 430.9090881347656
0, 11, 27, 434.4516906738281
0, 11, 28, 427.5263061523438
0, 11, 29, 455.0746154785156
0, 11, 30, 414.0484008789062
0, 11, 31, 426.5315246582031
0, 11, 32, 406.1770324707031
0, 11, 33, 436.2578125
0, 11, 34, 446.150390625
0, 11, 35, 413.64013671875
0, 11, 36, 407.6707458496094
0, 11, 37, 395.3513488769531
0, 11, 38, 410.3766479492188
0, 11, 39, 433.8542175292969
0, 11, 40, 379.100830078125
0, 11, 41, 373.7401428222656
0, 11, 42, 361.0437927246094
0, 11, 43, 354.8765258789062
0, 11, 44, 342.3995361328125
0, 11, 45, 300.6890869140625
0, 11, 46, 305.036865234375
0, 11, 47, 318.3070678710938
0, 11, 48, 281.6519775390625
0, 11, 49, 287.1548461914062
0, 12, 0, 324.3443603515625
0, 12, 1, 359.8607788085938
0, 12, 2, 348.7633056640625
0, 12, 3, 359.0320434570312
0, 12, 4, 356.0206604003906
0, 12, 5, 316.1121826171875
0, 12, 6, 378.986572265625
0, 12, 7, 388.7867126464844
0, 12, 8, 383.567138671875
0, 12, 9, 393.4507141113281
0, 12, 10, 401.3608703613281
0, 12, 11, 409.4566650390625
0, 12, 12, 426.8849182128906
0, 12, 13, 420.9525756835938
0, 12, 14, 451.0593566894531
0, 12, 15, 449.2689208984375
0, 12, 16, 430.8416137695312
0, 12, 17, 446.2364501953125
0, 12, 18, 444.961669921875
0, 12, 19, 451.8585205078125
0, 12, 20, 436.6299133300781
0, 12, 21, 470.3104553222656
0, 12, 22, 455.708740234375
0, 12, 23, 433.0422058105469
0, 12, 24, 414.7478637695312
0, 12, 25, 441.7254638671875
0, 12, 26, 441.8714294433594
0, 12, 27, 445.5682983398438
0, 12, 28, 432.2116088867188
0, 12, 29, 453.4018249511719
0, 12, 30, 422.9509582519531
0, 12, 31, 437.2005615234375
0, 12, 32, 434.3921813964844
0, 12, 33, 462.4829406738281
0, 12, 34, 421.1246643066406
0, 12, 35, 436.0359497070312
0, 12, 36, 408.0784606933594
0, 12, 37, 415.2626342773438
0, 12, 38, 378.3941955566406
0, 12, 39, 386.2223510742188
0, 12, 40, 374.6503601074219
0, 12, 41, 394.7415161132812
0, 12, 42, 383.1814270019531
0, 12, 43, 372.8532104492188
0, 12, 44, 351.9156494140625
0, 12, 45, 345.4456787109375
0, 12, 46, 283.1649475097656
0, 12, 47, 292.2799072265625
0, 12, 48, 305.6162414550781
0, 12, 49, 283.3005981445312
0, 13, 0, 353.361328125
0, 13, 1, 328.8766784667969
0, 13, 2, 351.2623596191406
0, 13, 3, 348.06005859375
0, 13, 4, 394.1848754882812
0, 13, 5, 365.8722229003906
0, 13, 6, 386.8203125
0, 13, 7, 387.6685485839844
0, 13, 8, 393.3445129394531
0, 13, 9, 396.0646362304688
0, 13, 10, 434.855224609375
0, 13, 11, 413.1864318847656
0, 13, 12, 433.5228576660156
0, 13, 13, 439.1393127441406
0, 13, 14, 452.6602172851562
0, 13, 15, 429.4271545410156
0, 13, 16, 477.1360778808594
0, 13, 17, 448.328369140625
0, 13, 18, 453.4425048828125
0, 13, 19, 473.1317138671875
0, 13, 20, 480.3915100097656
0, 13, 21, 489.7449340820312
0, 13, 22, 478.03466796875
0, 13, 23, 471.2283630371094
0, 13, 24, 456.6806945800781
0, 13, 25, 488.2843627929688
0, 13, 26, 460.0746154785156
0, 13, 27, 470.2062683105469
0, 13, 28, 461.7220764160156
0, 13, 29, 466.8169860839844
0, 13, 30, 460.7957763671875
0, 13, 31, 474.1210632324219
0, 13, 32, 464.3811340332031
0, 13, 33, 459.03759765625
0, 13, 34, 449.936767578125
0, 13, 35, 424.0965576171875
0, 13, 36, 430.2578735351562
0, 13, 37, 412.0979614257812
0, 13, 38, 396.7983703613281
0, 13, 39, 417.8729553222656
0, 13, 40, 401.8837280273438
0, 13, 41, 407.1572570800781
0, 13, 42, 401.0784912109375
0, 13, 43, 405.8788452148438
0, 13, 44, 363.8525390625
0, 13, 45, 345.8720703125
0, 13, 46, 360.7967834472656
0, 13, 47, 340.4421997070312
0, 13, 48, 310.4915161132812
0, 13, 49, 292.3084411621094
0, 14, 0, 351.2403259277344
0, 14, 1, 354.5773010253906
0, 14, 2, 326.5824890136719
0, 14, 3, 362.0182800292969
0, 14, 4, 397.7869873046875
0, 14, 5, 385.7654113769531
0, 14, 6, 395.6753540039062
0, 14, 7, 383.9829711914062
0, 14, 8, 405.3501892089844
0, 14, 9, 419.6620483398438
0, 14, 10, 443.0174560546875
0, 14, 11, 449.4854431152344
0, 14, 12, 425.2655334472656
0, 14, 13, 445.1766662597656
0, 14, 14, 440.9015808105469
0, 14, 15, 472.6905822753906
0, 14, 16, 445.5423278808594
0, 14, 17, 432.4169616699219
0, 14, 18, 499.5865478515625
0, 14, 19, 485.1783447265625
0, 14, 20, 482.7913818359375
0, 14, 21, 469.2122192382812
0, 14, 22, 455.4351196289062
0, 14, 23, 472.2475280761719
0, 14, 24, 463.5749816894531
0, 14, 25, 455.9956359863281
0, 14, 26, 460.7303161621094
0, 14, 27, 485.9359130859375
0, 14, 28, 472.008056640625
0, 14, 29, 448.01904296875
0, 14, 30, 460.6123046875
0, 14, 31, 460.5623779296875
0, 14, 32, 437.4672546386719
0, 14, 33, 465.254638671875
0, 14, 34, 459.3119201660156
0, 14, 35, 462.4694213867188
0, 14, 36, 434.4222717285156
0, 14, 37, 453.7763366699219
0, 14, 38, 424.1751098632812
0, 14, 39, 409.4673461914062
0, 14, 40, 419.9660339355469
0, 14, 41, 403.5369262695312
0, 14, 42, 406.8779296875
0, 14, 43, 401.70361328125
0, 14, 44, 372.7676086425781
0, 14, 45, 340.2855529785156
0, 14, 46, 335.4964904785156
0, 14, 47, 347.1541748046875
0, 14, 48, 315.4325866699219
0, 14, 49, 323.1131591796875
0, 15, 0, 341.7236022949219
0, 15, 1, 324.0487060546875
0, 15, 2, 319.6375732421875
0, 15, 3, 310.970947265625
0, 15, 4, 349.8697204589844
0, 15, 5, 351.1387634277344
0, 15, 6, 433.2455749511719
0, 15, 7, 465.7540588378906
0, 15, 8, 410.7393493652344
0, 15, 9, 405.5416870117188
0, 15, 10, 438.6478576660156
0, 15, 11, 424.9897155761719
0, 15, 12, 462.1894226074219
0, 15, 13, 470.3980712890625
0, 15, 14, 448.5169677734375
0, 15, 15, 442.1978759765625
0, 15, 16, 502.1735229492188
0, 15, 17, 421.1109924316406
0, 15, 18, 482.7088623046875
0, 15, 19, 514.0518798828125
0, 15, 20, 491.671875
0, 15, 21, 468.7472229003906
0, 15, 22, 468.1415405273438
0, 15, 23, 459.277099609375
0, 15, 24, 469.4526672363281
0, 15, 25, 476.572509765625
0, 15, 26, 521.1290283203125
0, 15, 27, 445.3611755371094
0, 15, 28, 437.1473083496094
0, 15, 29, 459.8878479003906
0, 15, 30, 493.0940246582031
0, 15, 31, 490.091064453125
0, 15, 32, 462.06982421875
0, 15, 33, 469.6741333007812
0, 15, 34, 484.4267578125
0, 15, 35, 440.7975769042969
0, 15, 36, 447.7380981445312
0, 15, 37, 452.0885620117188
0, 15, 38, 433.8033142089844
0, 15, 39, 453.3431396484375
0, 15, 40, 452.5052795410156
0, 15, 41, 428.23193359375
0, 15, 42, 407.5658874511719
0, 15, 43, 370.0310363769531
0, 15, 44, 376.2981262207031
0, 15, 45, 362.0397033691406
0, 15, 46, 345.1662902832031
0, 15, 47, 373.8155212402344
0, 15, 48, 332.56884765625
0, 15, 49, 315.8507385253906
0, 16, 0, 348.5603332519531
0, 16, 1, 403.0068969726562
0, 16, 2, 366.7991943359375
0, 16, 3, 358.26220703125
0, 16, 4, 393.6361694335938
0, 16, 5, 371.7438659667969
0, 16, 6, 378.33984375
0, 16, 7, 412.9338073730469
0, 16, 8, 385.8518676757812
0, 16, 9, 416.9329833984375
0, 16, 10, 432.3704833984375
0, 16, 11, 431.7338256835938
0, 16, 12, 488.9125671386719
0, 16, 13, 451.27294921875
0, 16, 14, 456.3670349121094
0, 16, 15, 488.9408569335938
0, 16, 16, 507.4298095703125
0, 16, 17, 467.0870971679688
0, 16, 18, 466.0931091308594
0, 16, 19, 479.5679626464844
0, 16, 20, 512.2650146484375
0, 16, 21, 511.7588806152344
0, 16, 22, 535.4522705078125
0, 16, 23, 509.4710998535156
0, 16, 24, 491.9916381835938
0, 16, 25, 551.0508422851562
0, 16, 26, 508.1678466796875
0, 16, 27, 493.2596740722656
0, 16, 28, 504.6514282226562
0, 16, 29, 477.3832092285156
0, 16, 30, 469.1793518066406
0, 16, 31, 483.0977172851562
0, 16, 32, 473.0893249511719
0, 16, 33, 456.9882507324219
0, 16, 34, 507.9370727539062
0, 16, 35, 451.242431640625
0, 16, 36, 444.7849426269531
0, 16, 37, 447.0887145996094
0, 16, 38, 450.4557800292969
0, 16, 39, 465.0691833496094
0, 16, 40, 431.939697265625
0, 16, 41, 424.5245056152344
0, 16, 42, 423.9203796386719
0, 16, 43, 372.2736206054688
0, 16, 44, 405.7286987304688
0, 16, 45, 399.5976867675781
0, 16, 46, 389.5422973632812
0, 16, 47, 371.371337890625
0, 16, 48, 347.1255187988281
0, 16, 49, 311.94287109375
0, 17, 0, 340.5816040039062
0, 17, 1, 330.0295104980469
0, 17, 2, 357.968505859375
0, 17, 3, 363.9442443847656
0, 17, 4, 394.69384765625
0, 17, 5, 397.7665710449219
0, 17, 6, 405.630615234375
0, 17, 7, 409.40478515625
0, 17, 8, 458.7830200195312
0, 17, 9, 446.277587890625
0, 17, 10, 429.5870666503906
0, 17, 11, 429.2120971679688
0, 17, 12, 465.0835876464844
0, 17, 13, 422.961181640625
0, 17, 14, 462.5245971679688
0, 17, 15, 449.1675109863281
0, 17, 16, 509.7939147949219
0, 17, 17, 479.8584899902344
0, 17, 18, 467.4697265625
0, 17, 19, 517.0877685546875
0, 17, 20, 515.1660766601562
0, 17, 21, 522.1732177734375
0, 17, 22, 510.4771728515625
0, 17, 23, 496.9032287597656
0, 17, 24, 491.2063598632812
0, 17, 25, 490.2518310546875
0, 17, 26, 511.7695617675781
0, 17, 27, 499.9930419921875
0, 17, 28, 512.9111938476562
0, 17, 29, 506.154052734375
0, 17, 30, 476.7635192871094
0, 17, 31, 528.0197143554688
0, 17, 32, 490.250732421875
0, 17, 33, 474.0735168457031
0, 17, 34, 460.5521850585938
0, 17, 35, 491.8024291992188
0, 17, 36, 457.9955139160156
0, 17, 37, 465.9114685058594
0, 17, 38, 442.4076232910156
0, 17, 39, 454.1783142089844
0, 17, 40, 420.8544006347656
0, 17, 41, 410.88671875
0, 17, 42, 411.5744934082031
0, 17, 43, 407.0706787109375
0, 17, 44, 373.9630432128906
0, 17, 45, 376.1598510742188
0, 17, 46, 363.8666381835938
0, 17, 47, 376.6607971191406
0, 17, 48, 361.4839477539062
0, 17, 49, 355.4615783691406
0, 18, 0, 355.41259765625
0, 18, 1, 372.3949584960938
0, 18, 2, 392.11181640625
0, 18, 3, 381.4981384277344
0, 18, 4, 429.4713134765625
0, 18, 5, 423.5604553222656
0, 18, 6, 433.0650329589844
0, 18, 7, 443.8478393554688
0, 18, 8, 442.2997741699219
0, 18, 9, 448.5985717773438
0, 18, 10, 449.6397399902344
0, 18, 11, 443.5025634765625
0, 18, 12, 454.9109191894531
0, 18, 13, 454.3131713867188
0, 18, 14, 503.643798828125
0, 18, 15, 492.1173400878906
0, 18, 16, 496.3509216308594
0, 18, 17, 471.2039184570312
0, 18, 18, 472.6166381835938
0, 18, 19, 500.9068603515625
0, 18, 20, 523.4429321289062
0, 18, 21, 516.1693115234375
0, 18, 22, 497.5653381347656
0, 18, 23, 516.9163818359375
0, 18, 24, 529.4807739257812
0, 18, 25, 539.6365966796875
0, 18, 26, 510.927001953125
0, 18, 27, 537.2322387695312
0, 18, 28, 498.2534790039062
0, 18, 29, 525.3778686523438
0, 18, 30, 532.3336791992188
0, 18, 31, 512.1676635742188
0, 18, 32, 499.7239990234375
0, 18, 33, 514.4844970703125
0, 18, 34, 505.4115295410156
0, 18, 35, 487.5391845703125
0, 18, 36, 503.0313415527344
0, 18, 37, 459.2908630371094
0, 18, 38, 433.9482116699219
0, 18, 39, 430.0450744628906
0, 18, 40, 434.256103515625
0, 18, 41, 442.604736328125
0, 18, 42, 433.2109069824219
0, 18, 43, 394.0983276367188
0, 18, 44, 394.3872680664062
0, 18, 45, 394.0431823730469
0, 18, 46, 384.7498779296875
0, 18, 47, 358.8056945800781
0, 18, 48, 376.5594177246094
0, 18, 49, 396.5776062011719
0, 19, 0, 358.291015625
0, 19, 1, 392.5557250976562
0, 19, 2, 358.851806640625
0, 19, 3, 409.5114135742188
0, 19, 4, 407.8182678222656
0, 19, 5, 416.5899658203125
0, 19, 6, 428.4673767089844
0, 19, 7, 473.710693359375
0, 19, 8, 454.0271911621094
0, 19, 9, 432.1414794921875
0, 19, 10, 455.9663391113281
0, 19, 11, 470.4953002929688
0, 19, 12, 452.7941284179688
0, 19, 13, 481.6317443847656
0, 19, 14, 459.0778503417969
0, 19, 15, 466.3045654296875
0, 19, 16, 506.24658203125
0, 19, 17, 486.6767578125
0, 19, 18, 521.8544311523438
0, 19, 19, 493.4679565429688
0, 19, 20, 546.6951904296875
0, 19, 21, 535.6102294921875
0, 19, 22, 529.4677124023438
0, 19, 23, 552.593994140625
0, 19, 24, 535.6666259765625
0, 19, 25, 528.14013671875
0, 19, 26, 525.3063354492188
0, 19, 27, 499.817626953125
0, 19, 28, 526.0228271484375
0, 19, 29, 516.9742431640625
0, 19, 30, 509.0720825195312
0, 19, 31, 537.5931396484375
0, 19, 32, 480.2232360839844
0, 19, 33, 558.6536254882812
0, 19, 34, 508.8151550292969
0, 19, 35, 468.6114196777344
0, 19, 36, 479.0758972167969
0, 19, 37, 438.3590393066406
0, 19, 38, 479.0163879394531
0, 19, 39, 484.2453002929688
0, 19, 40, 468.9505004882812
0, 19, 41, 421.0148315429688
0, 19, 42, 389.6234130859375
0, 19, 43, 458.7762756347656
0, 19, 44, 410.4998474121094
0, 19, 45, 406.1408996582031
0, 19, 46, 368.3493957519531
0, 19, 47, 370.3564147949219
0, 19, 48, 348.8429565429688
0, 19, 49, 344.9594116210938
0, 20, 0, 386.3932800292969
0, 20, 1, 375.7346496582031
0, 20, 2, 381.7112731933594
0, 20, 3, 399.9028625488281
0, 20, 4, 405.4346008300781
0, 20, 5, 401.5726623535156
0, 20, 6, 406.0279235839844
0, 20, 7, 439.9747009277344
0, 20, 8, 465.156005859375
0, 20, 9, 435.2651977539062
0, 20, 10, 487.5188903808594
0, 20, 11, 475.0233764648438
0, 20, 12, 459.6663818359375
0, 20, 13, 494.917236328125
0, 20, 14, 485.7131652832031
0, 20, 15, 460.5628967285156
0, 20, 16, 535.870361328125
0, 20, 17, 528.8215942382812
0, 20, 18, 521.4363403320312
0, 20, 19, 543.5650024414062
0, 20, 20, 502.4446105957031
0, 20, 21, 538.4288940429688
0, 20, 22, 543.5798950195312
0, 20, 23, 553.4083251953125
0, 20, 24, 514.9443969726562
0, 20, 25, 569.7343139648438
0, 20, 26, 496.8931884765625
0, 20, 27, 495.5217895507812
0, 20, 28, 520.7101440429688
0, 20, 29, 534.1845703125
0, 20, 30, 518.6749267578125
0, 20, 31, 527.3488159179688
0, 20, 32, 539.0265502929688
0, 20, 33, 506.4403686523438
0, 20, 34, 508.5888061523438
0, 20, 35, 478.5202026367188
0, 20, 36, 497.0370788574219
0, 20, 37, 484.5606994628906
0, 20, 38, 478.3622436523438
0, 20, 39, 430.1438598632812
0, 20, 40, 452.7637023925781
0, 20, 41, 472.1475219726562
0, 20, 42, 435.3355407714844
0, 20, 43, 422.5165405273438
0, 20, 44, 419.0481872558594
0, 20, 45, 423.2399597167969
0, 20, 46, 384.8684387207031
0, 20, 47, 367.2178649902344
0, 20, 48, 388.3973693847656
0, 20, 49, 400.0962524414062
0, 21, 0, 366.4792175292969
0, 21, 1, 342.5699768066406
0, 21, 2, 373.859375
0, 21, 3, 399.6537475585938
0, 21, 4, 415.4276123046875
0, 21, 5, 411.7625427246094
0, 21, 6, 419.8895263671875
0, 21, 7, 443.9707641601562
0, 21, 8, 463.513671875
0, 21, 9, 428.8442687988281
0, 21, 10, 437.5811462402344
0, 21, 11, 471.3752136230469
