# TOPAS Version: 3.7
# Parameter File: TestingDose4.txt
# Results for scorer TestingDose4Fluence
# Scored in component: Phantom
# X in 50 bins of 0.1 cm
# Y in 50 bins of 0.1 cm
# Z in 50 bins of 0.1 cm
# Fluence ( /mm2 ) : Sum   
0, 0, 0, 213.7367248535156
0, 0, 1, 236.7891082763672
0, 0, 2, 271.4390869140625
0, 0, 3, 256.1786804199219
0, 0, 4, 236.4820404052734
0, 0, 5, 258.2594909667969
0, 0, 6, 264.4078674316406
0, 0, 7, 234.6763000488281
0, 0, 8, 256.8978881835938
0, 0, 9, 261.9200134277344
0, 0, 10, 269.9195556640625
0, 0, 11, 273.8459777832031
0, 0, 12, 264.1364135742188
0, 0, 13, 262.0592041015625
0, 0, 14, 265.079833984375
0, 0, 15, 296.2783203125
0, 0, 16, 278.6899108886719
0, 0, 17, 294.283203125
0, 0, 18, 267.8844299316406
0, 0, 19, 252.8138580322266
0, 0, 20, 296.5815124511719
0, 0, 21, 279.8235168457031
0, 0, 22, 286.3524475097656
0, 0, 23, 285.3569030761719
0, 0, 24, 305.3162231445312
0, 0, 25, 247.9072875976562
0, 0, 26, 283.8917846679688
0, 0, 27, 275.800537109375
0, 0, 28, 300.5999145507812
0, 0, 29, 253.8124237060547
0, 0, 30, 279.9101867675781
0, 0, 31, 265.5097961425781
0, 0, 32, 251.5065155029297
0, 0, 33, 259.3222045898438
0, 0, 34, 265.6565856933594
0, 0, 35, 267.9656372070312
0, 0, 36, 266.4725952148438
0, 0, 37, 240.2521057128906
0, 0, 38, 248.0272369384766
0, 0, 39, 250.8161010742188
0, 0, 40, 236.6237487792969
0, 0, 41, 218.0440368652344
0, 0, 42, 216.9967956542969
0, 0, 43, 218.7042388916016
0, 0, 44, 210.5293579101562
0, 0, 45, 225.4422149658203
0, 0, 46, 218.2584686279297
0, 0, 47, 217.9622344970703
0, 0, 48, 189.6923675537109
0, 0, 49, 211.5928497314453
0, 1, 0, 230.9552459716797
0, 1, 1, 212.6480407714844
0, 1, 2, 237.0154876708984
0, 1, 3, 250.1230163574219
0, 1, 4, 268.8785705566406
0, 1, 5, 277.9609069824219
0, 1, 6, 277.117919921875
0, 1, 7, 284.2106018066406
0, 1, 8, 269.7746276855469
0, 1, 9, 265.8246154785156
0, 1, 10, 280.5055236816406
0, 1, 11, 294.7502746582031
0, 1, 12, 301.6923828125
0, 1, 13, 277.7425537109375
0, 1, 14, 281.3115844726562
0, 1, 15, 314.5321044921875
0, 1, 16, 293.8719177246094
0, 1, 17, 314.0482788085938
0, 1, 18, 305.2359619140625
0, 1, 19, 281.525390625
0, 1, 20, 286.5151062011719
0, 1, 21, 283.4893188476562
0, 1, 22, 285.6211242675781
0, 1, 23, 275.9672546386719
0, 1, 24, 312.913818359375
0, 1, 25, 298.8575744628906
0, 1, 26, 288.4692077636719
0, 1, 27, 290.3823852539062
0, 1, 28, 303.8301391601562
0, 1, 29, 260.8172607421875
0, 1, 30, 285.96728515625
0, 1, 31, 306.0669250488281
0, 1, 32, 272.078857421875
0, 1, 33, 268.5753784179688
0, 1, 34, 292.9785766601562
0, 1, 35, 290.7554931640625
0, 1, 36, 252.1332397460938
0, 1, 37, 270.2125244140625
0, 1, 38, 247.3622589111328
0, 1, 39, 250.1466522216797
0, 1, 40, 262.2732238769531
0, 1, 41, 245.7640838623047
0, 1, 42, 259.5039367675781
0, 1, 43, 232.5393676757812
0, 1, 44, 208.1502838134766
0, 1, 45, 252.58447265625
0, 1, 46, 232.6428070068359
0, 1, 47, 217.6406555175781
0, 1, 48, 203.0536956787109
0, 1, 49, 211.0045623779297
0, 2, 0, 240.396728515625
0, 2, 1, 227.2172241210938
0, 2, 2, 246.0024719238281
0, 2, 3, 244.4594116210938
0, 2, 4, 266.1555786132812
0, 2, 5, 265.0967712402344
0, 2, 6, 258.7448425292969
0, 2, 7, 279.5715637207031
0, 2, 8, 283.5266418457031
0, 2, 9, 281.6795349121094
0, 2, 10, 289.8200988769531
0, 2, 11, 311.3192749023438
0, 2, 12, 306.1588745117188
0, 2, 13, 267.8974609375
0, 2, 14, 296.4612731933594
0, 2, 15, 303.8746032714844
0, 2, 16, 318.665771484375
0, 2, 17, 331.6400146484375
0, 2, 18, 300.6619262695312
0, 2, 19, 298.8227844238281
0, 2, 20, 323.5624389648438
0, 2, 21, 294.0423583984375
0, 2, 22, 319.713134765625
0, 2, 23, 316.2079162597656
0, 2, 24, 307.1688842773438
0, 2, 25, 320.349365234375
0, 2, 26, 295.4898986816406
0, 2, 27, 299.7514343261719
0, 2, 28, 330.0565185546875
0, 2, 29, 310.34423828125
0, 2, 30, 312.3695373535156
0, 2, 31, 323.482421875
0, 2, 32, 319.8897094726562
0, 2, 33, 279.1524658203125
0, 2, 34, 287.3514709472656
0, 2, 35, 291.7319030761719
0, 2, 36, 268.5047912597656
0, 2, 37, 253.4871673583984
0, 2, 38, 265.7710876464844
0, 2, 39, 257.7940979003906
0, 2, 40, 266.1565246582031
0, 2, 41, 256.5143737792969
0, 2, 42, 273.1554260253906
0, 2, 43, 236.9769287109375
0, 2, 44, 236.1700592041016
0, 2, 45, 237.7247161865234
0, 2, 46, 253.07666015625
0, 2, 47, 238.9139251708984
0, 2, 48, 215.1920471191406
0, 2, 49, 201.9618682861328
0, 3, 0, 245.2018890380859
0, 3, 1, 255.3330535888672
0, 3, 2, 255.6222229003906
0, 3, 3, 265.0882568359375
0, 3, 4, 272.7086486816406
0, 3, 5, 273.9378967285156
0, 3, 6, 267.2611389160156
0, 3, 7, 291.6385498046875
0, 3, 8, 312.0892944335938
0, 3, 9, 317.8480224609375
0, 3, 10, 316.2539367675781
0, 3, 11, 337.1504821777344
0, 3, 12, 317.2055053710938
0, 3, 13, 301.2771911621094
0, 3, 14, 309.122802734375
0, 3, 15, 284.0629577636719
0, 3, 16, 283.1427001953125
0, 3, 17, 306.7914733886719
0, 3, 18, 307.6685791015625
0, 3, 19, 333.4838562011719
0, 3, 20, 350.405029296875
0, 3, 21, 318.1279907226562
0, 3, 22, 305.5821533203125
0, 3, 23, 333.4610900878906
0, 3, 24, 365.9082946777344
0, 3, 25, 318.8751220703125
0, 3, 26, 321.39697265625
0, 3, 27, 306.501708984375
0, 3, 28, 337.6076354980469
0, 3, 29, 342.49365234375
0, 3, 30, 312.8683166503906
0, 3, 31, 325.2453002929688
0, 3, 32, 309.9068603515625
0, 3, 33, 304.441650390625
0, 3, 34, 311.9881286621094
0, 3, 35, 313.2212829589844
0, 3, 36, 290.3263244628906
0, 3, 37, 291.4873352050781
0, 3, 38, 295.1335144042969
0, 3, 39, 295.3374633789062
0, 3, 40, 244.3930816650391
0, 3, 41, 276.4241333007812
0, 3, 42, 250.5514678955078
0, 3, 43, 287.9984436035156
0, 3, 44, 248.1771392822266
0, 3, 45, 235.6156158447266
0, 3, 46, 222.0222930908203
0, 3, 47, 205.9276123046875
0, 3, 48, 217.7557525634766
0, 3, 49, 208.1750183105469
0, 4, 0, 275.1671142578125
0, 4, 1, 267.0706176757812
0, 4, 2, 251.1187438964844
0, 4, 3, 282.75830078125
0, 4, 4, 275.5804748535156
0, 4, 5, 272.4151916503906
0, 4, 6, 323.3125
0, 4, 7, 290.2485961914062
0, 4, 8, 316.0711364746094
0, 4, 9, 304.515625
0, 4, 10, 306.1111450195312
0, 4, 11, 339.5404968261719
0, 4, 12, 339.5617370605469
0, 4, 13, 345.6058044433594
0, 4, 14, 333.2863159179688
0, 4, 15, 332.6080017089844
0, 4, 16, 357.2911682128906
0, 4, 17, 315.4598083496094
0, 4, 18, 326.0953369140625
0, 4, 19, 316.9425048828125
0, 4, 20, 350.2169494628906
0, 4, 21, 330.7459106445312
0, 4, 22, 367.7384948730469
0, 4, 23, 354.1134338378906
0, 4, 24, 367.3057556152344
0, 4, 25, 390.3694152832031
0, 4, 26, 342.0213317871094
0, 4, 27, 355.3521118164062
0, 4, 28, 333.3158874511719
0, 4, 29, 332.1435852050781
0, 4, 30, 323.2734375
0, 4, 31, 329.0662536621094
0, 4, 32, 306.1190795898438
0, 4, 33, 357.6296997070312
0, 4, 34, 302.294189453125
0, 4, 35, 321.1731567382812
0, 4, 36, 288.1459045410156
0, 4, 37, 337.1344299316406
0, 4, 38, 294.1897583007812
0, 4, 39, 275.1987915039062
0, 4, 40, 288.7852478027344
0, 4, 41, 265.1281433105469
0, 4, 42, 283.7431335449219
0, 4, 43, 282.5258178710938
0, 4, 44, 250.2705078125
0, 4, 45, 266.5419311523438
0, 4, 46, 244.3875427246094
0, 4, 47, 259.3128051757812
0, 4, 48, 238.1884918212891
0, 4, 49, 201.763427734375
0, 5, 0, 275.9089965820312
0, 5, 1, 294.0819091796875
0, 5, 2, 275.6567993164062
0, 5, 3, 282.36328125
0, 5, 4, 291.7004699707031
0, 5, 5, 304.36767578125
0, 5, 6, 308.5831604003906
0, 5, 7, 299.7618103027344
0, 5, 8, 337.0105590820312
0, 5, 9, 325.0729675292969
0, 5, 10, 314.8932495117188
0, 5, 11, 330.7054443359375
0, 5, 12, 324.9219970703125
0, 5, 13, 338.0336608886719
0, 5, 14, 335.6605224609375
0, 5, 15, 332.4996948242188
0, 5, 16, 370.3797607421875
0, 5, 17, 330.6571960449219
0, 5, 18, 354.1331176757812
0, 5, 19, 363.9017944335938
0, 5, 20, 372.3750610351562
0, 5, 21, 332.0542297363281
0, 5, 22, 367.681396484375
0, 5, 23, 390.7602844238281
0, 5, 24, 390.3102416992188
0, 5, 25, 398.5171813964844
0, 5, 26, 355.5327758789062
0, 5, 27, 320.1788635253906
0, 5, 28, 340.43896484375
0, 5, 29, 328.1884765625
0, 5, 30, 356.9289855957031
0, 5, 31, 356.4578552246094
0, 5, 32, 319.6686096191406
0, 5, 33, 323.3896789550781
0, 5, 34, 334.3284301757812
0, 5, 35, 317.2341918945312
0, 5, 36, 309.0534973144531
0, 5, 37, 324.3561706542969
0, 5, 38, 328.2259216308594
0, 5, 39, 314.8512573242188
0, 5, 40, 311.5868835449219
0, 5, 41, 294.7464599609375
0, 5, 42, 305.3015441894531
0, 5, 43, 272.9054565429688
0, 5, 44, 268.4672546386719
0, 5, 45, 256.0353393554688
0, 5, 46, 267.5680541992188
0, 5, 47, 260.1286010742188
0, 5, 48, 225.1432647705078
0, 5, 49, 228.7539825439453
0, 6, 0, 296.0953063964844
0, 6, 1, 270.2462158203125
0, 6, 2, 286.4527893066406
0, 6, 3, 303.8572692871094
0, 6, 4, 299.6419067382812
0, 6, 5, 329.3564453125
0, 6, 6, 342.6701965332031
0, 6, 7, 324.0348510742188
0, 6, 8, 309.9989624023438
0, 6, 9, 310.7802124023438
0, 6, 10, 336.0328369140625
0, 6, 11, 363.1283264160156
0, 6, 12, 344.1164245605469
0, 6, 13, 357.6065368652344
0, 6, 14, 385.8153686523438
0, 6, 15, 354.6711120605469
0, 6, 16, 358.1155395507812
0, 6, 17, 338.6410522460938
0, 6, 18, 364.4927673339844
0, 6, 19, 350.5839233398438
0, 6, 20, 380.1898498535156
0, 6, 21, 361.5278625488281
0, 6, 22, 361.7973327636719
0, 6, 23, 362.2961120605469
0, 6, 24, 356.6405029296875
0, 6, 25, 371.0473022460938
0, 6, 26, 373.1828002929688
0, 6, 27, 370.654541015625
0, 6, 28, 359.850830078125
0, 6, 29, 375.0074768066406
0, 6, 30, 353.1504821777344
0, 6, 31, 371.2771606445312
0, 6, 32, 379.1780395507812
0, 6, 33, 345.1666870117188
0, 6, 34, 372.7840270996094
0, 6, 35, 312.4705810546875
0, 6, 36, 338.9606323242188
0, 6, 37, 345.329345703125
0, 6, 38, 296.5621948242188
0, 6, 39, 353.4125061035156
0, 6, 40, 356.4497985839844
0, 6, 41, 301.7784118652344
0, 6, 42, 292.4518127441406
0, 6, 43, 287.4564208984375
0, 6, 44, 256.310546875
0, 6, 45, 274.7249755859375
0, 6, 46, 268.9032592773438
0, 6, 47, 280.7678527832031
0, 6, 48, 260.3643188476562
0, 6, 49, 249.8995819091797
0, 7, 0, 272.0127563476562
0, 7, 1, 277.5107727050781
0, 7, 2, 305.2377014160156
0, 7, 3, 316.641357421875
0, 7, 4, 308.5647277832031
0, 7, 5, 310.7630310058594
0, 7, 6, 316.6852111816406
0, 7, 7, 339.8743286132812
0, 7, 8, 341.3613586425781
0, 7, 9, 351.2384643554688
0, 7, 10, 366.0255432128906
0, 7, 11, 384.7672424316406
0, 7, 12, 377.5993041992188
0, 7, 13, 347.9817810058594
0, 7, 14, 375.4256591796875
0, 7, 15, 384.5874328613281
0, 7, 16, 368.8567199707031
0, 7, 17, 364.0794372558594
0, 7, 18, 355.0214233398438
0, 7, 19, 378.820068359375
0, 7, 20, 406.2668151855469
0, 7, 21, 417.4847717285156
0, 7, 22, 361.1222839355469
0, 7, 23, 383.3140258789062
0, 7, 24, 397.5828247070312
0, 7, 25, 389.9764099121094
0, 7, 26, 356.1039428710938
0, 7, 27, 406.0364990234375
0, 7, 28, 357.7937622070312
0, 7, 29, 378.4710693359375
0, 7, 30, 356.6451416015625
0, 7, 31, 348.851806640625
0, 7, 32, 367.4249877929688
0, 7, 33, 357.9583740234375
0, 7, 34, 348.6058654785156
0, 7, 35, 342.9862365722656
0, 7, 36, 350.2229309082031
0, 7, 37, 343.1430053710938
0, 7, 38, 353.8788757324219
0, 7, 39, 327.4224853515625
0, 7, 40, 309.3606872558594
0, 7, 41, 307.3725891113281
0, 7, 42, 313.3264770507812
0, 7, 43, 292.8245239257812
0, 7, 44, 314.3327331542969
0, 7, 45, 304.0729370117188
0, 7, 46, 268.6606140136719
0, 7, 47, 251.0045318603516
0, 7, 48, 288.0194091796875
0, 7, 49, 246.2960052490234
0, 8, 0, 293.5319213867188
0, 8, 1, 319.7150268554688
0, 8, 2, 317.8385009765625
0, 8, 3, 331.0299072265625
0, 8, 4, 320.7320556640625
0, 8, 5, 339.6484985351562
0, 8, 6, 374.3146057128906
0, 8, 7, 358.7193908691406
0, 8, 8, 367.6364440917969
0, 8, 9, 341.5166931152344
0, 8, 10, 360.7548828125
0, 8, 11, 362.0664978027344
0, 8, 12, 405.3502197265625
0, 8, 13, 407.7134704589844
0, 8, 14, 374.9935607910156
0, 8, 15, 394.7193298339844
0, 8, 16, 353.6397399902344
0, 8, 17, 391.8311462402344
0, 8, 18, 382.1856079101562
0, 8, 19, 395.466796875
0, 8, 20, 417.8898620605469
0, 8, 21, 401.6282348632812
0, 8, 22, 390.9493713378906
0, 8, 23, 376.7326965332031
0, 8, 24, 409.0192565917969
0, 8, 25, 431.2922058105469
0, 8, 26, 426.1043090820312
0, 8, 27, 377.7456970214844
0, 8, 28, 398.2748718261719
0, 8, 29, 383.0906982421875
0, 8, 30, 359.9203796386719
0, 8, 31, 364.24951171875
0, 8, 32, 384.2052917480469
0, 8, 33, 357.5138244628906
0, 8, 34, 382.356201171875
0, 8, 35, 372.0660705566406
0, 8, 36, 374.0901184082031
0, 8, 37, 341.1056823730469
0, 8, 38, 338.2073974609375
0, 8, 39, 347.0945434570312
0, 8, 40, 359.2400512695312
0, 8, 41, 312.0720825195312
0, 8, 42, 333.3670349121094
0, 8, 43, 384.5258178710938
0, 8, 44, 319.8437805175781
0, 8, 45, 302.0409545898438
0, 8, 46, 289.7293395996094
0, 8, 47, 296.5497131347656
0, 8, 48, 268.41162109375
0, 8, 49, 263.6285095214844
0, 9, 0, 272.609130859375
0, 9, 1, 320.3862609863281
0, 9, 2, 316.6701049804688
0, 9, 3, 323.7587585449219
0, 9, 4, 377.0516357421875
0, 9, 5, 326.9229125976562
0, 9, 6, 341.3167419433594
0, 9, 7, 403.6380920410156
0, 9, 8, 381.1356811523438
0, 9, 9, 358.9114074707031
0, 9, 10, 373.4598388671875
0, 9, 11, 363.5823974609375
0, 9, 12, 386.1501770019531
0, 9, 13, 376.5643920898438
0, 9, 14, 383.8511962890625
0, 9, 15, 414.2225036621094
0, 9, 16, 402.4940490722656
0, 9, 17, 404.7749633789062
0, 9, 18, 452.2238159179688
0, 9, 19, 393.0081176757812
0, 9, 20, 421.9192199707031
0, 9, 21, 418.1105651855469
0, 9, 22, 446.5829772949219
0, 9, 23, 402.4270324707031
0, 9, 24, 408.106201171875
0, 9, 25, 444.7755126953125
0, 9, 26, 445.3059387207031
0, 9, 27, 432.0599060058594
0, 9, 28, 415.5066223144531
0, 9, 29, 409.7331848144531
0, 9, 30, 397.1544189453125
0, 9, 31, 394.6325073242188
0, 9, 32, 400.9418334960938
0, 9, 33, 361.5589904785156
0, 9, 34, 378.6865539550781
0, 9, 35, 381.4001770019531
0, 9, 36, 391.1496276855469
0, 9, 37, 355.7702331542969
0, 9, 38, 387.1590576171875
0, 9, 39, 342.3175964355469
0, 9, 40, 354.2542419433594
0, 9, 41, 314.7991333007812
0, 9, 42, 354.1780700683594
0, 9, 43, 335.9891662597656
0, 9, 44, 328.7569274902344
0, 9, 45, 323.6001586914062
0, 9, 46, 274.8199768066406
0, 9, 47, 281.5611877441406
0, 9, 48, 290.8360595703125
0, 9, 49, 307.2174072265625
0, 10, 0, 306.2974243164062
0, 10, 1, 331.1536254882812
0, 10, 2, 313.8902893066406
0, 10, 3, 342.7798461914062
0, 10, 4, 351.2808227539062
0, 10, 5, 363.9144897460938
0, 10, 6, 357.2150268554688
0, 10, 7, 381.7286682128906
0, 10, 8, 379.5055236816406
0, 10, 9, 369.048583984375
0, 10, 10, 388.1026306152344
0, 10, 11, 390.1072692871094
0, 10, 12, 411.0179748535156
0, 10, 13, 395.224609375
0, 10, 14, 394.8763427734375
0, 10, 15, 408.4983825683594
0, 10, 16, 373.8908386230469
0, 10, 17, 410.7574768066406
0, 10, 18, 416.6244506835938
0, 10, 19, 414.1549682617188
0, 10, 20, 431.6767272949219
0, 10, 21, 418.9943237304688
0, 10, 22, 418.2986450195312
0, 10, 23, 402.927734375
0, 10, 24, 461.7338256835938
0, 10, 25, 464.1522521972656
0, 10, 26, 483.0276794433594
0, 10, 27, 393.1229858398438
0, 10, 28, 424.3538208007812
0, 10, 29, 411.7214660644531
0, 10, 30, 434.0347595214844
0, 10, 31, 388.3323974609375
0, 10, 32, 423.8402709960938
0, 10, 33, 412.9295959472656
0, 10, 34, 419.6191711425781
0, 10, 35, 401.6251220703125
0, 10, 36, 395.5548400878906
0, 10, 37, 397.7188720703125
0, 10, 38, 402.9705505371094
0, 10, 39, 379.7601623535156
0, 10, 40, 394.979736328125
0, 10, 41, 336.4577026367188
0, 10, 42, 350.1329040527344
0, 10, 43, 353.9752197265625
0, 10, 44, 334.1246643066406
0, 10, 45, 336.2745971679688
0, 10, 46, 316.5137939453125
0, 10, 47, 320.6435546875
0, 10, 48, 291.9100646972656
0, 10, 49, 302.9521789550781
0, 11, 0, 288.8338317871094
0, 11, 1, 308.8438415527344
0, 11, 2, 333.061767578125
0, 11, 3, 346.0310668945312
0, 11, 4, 350.1791381835938
0, 11, 5, 338.2379455566406
0, 11, 6, 386.0092163085938
0, 11, 7, 366.3695678710938
0, 11, 8, 372.6324157714844
0, 11, 9, 370.5291748046875
0, 11, 10, 403.0859375
0, 11, 11, 424.8457641601562
0, 11, 12, 418.8844604492188
0, 11, 13, 420.8315124511719
0, 11, 14, 401.9113464355469
0, 11, 15, 416.2051086425781
0, 11, 16, 425.3194885253906
0, 11, 17, 453.0074157714844
0, 11, 18, 425.165283203125
0, 11, 19, 404.5540466308594
0, 11, 20, 437.4618225097656
0, 11, 21, 427.0766296386719
0, 11, 22, 456.1994323730469
0, 11, 23, 457.0755920410156
0, 11, 24, 456.8269653320312
0, 11, 25, 447.6656494140625
0, 11, 26, 428.4869689941406
0, 11, 27, 432.3197326660156
0, 11, 28, 443.7702331542969
0, 11, 29, 460.4157104492188
0, 11, 30, 428.7894897460938
0, 11, 31, 423.04052734375
0, 11, 32, 408.1610717773438
0, 11, 33, 432.4535522460938
0, 11, 34, 419.6856384277344
0, 11, 35, 425.0552368164062
0, 11, 36, 426.1281127929688
0, 11, 37, 381.642333984375
0, 11, 38, 414.6554260253906
0, 11, 39, 420.6155090332031
0, 11, 40, 361.2672424316406
0, 11, 41, 361.3060302734375
0, 11, 42, 361.9889831542969
0, 11, 43, 348.39013671875
0, 11, 44, 340.4339599609375
0, 11, 45, 328.4512634277344
0, 11, 46, 309.4168701171875
0, 11, 47, 317.8439636230469
0, 11, 48, 296.3421936035156
0, 11, 49, 284.8539428710938
0, 12, 0, 349.6690368652344
0, 12, 1, 360.3187561035156
0, 12, 2, 350.0133666992188
0, 12, 3, 353.0369262695312
0, 12, 4, 360.3068237304688
0, 12, 5, 327.3323669433594
0, 12, 6, 383.6907653808594
0, 12, 7, 376.9031372070312
0, 12, 8, 368.4634094238281
0, 12, 9, 395.5976257324219
0, 12, 10, 397.681640625
0, 12, 11, 404.4122924804688
0, 12, 12, 435.1978149414062
0, 12, 13, 394.8606262207031
0, 12, 14, 441.80810546875
0, 12, 15, 442.9159545898438
0, 12, 16, 434.3927917480469
0, 12, 17, 434.0834350585938
0, 12, 18, 471.987060546875
0, 12, 19, 463.1300354003906
0, 12, 20, 455.816162109375
0, 12, 21, 464.0216369628906
0, 12, 22, 438.934814453125
0, 12, 23, 434.487548828125
0, 12, 24, 432.9768371582031
0, 12, 25, 450.7145385742188
0, 12, 26, 453.0910034179688
0, 12, 27, 450.7555236816406
0, 12, 28, 442.1094970703125
0, 12, 29, 456.3908386230469
0, 12, 30, 433.7266540527344
0, 12, 31, 413.7269897460938
0, 12, 32, 423.3204650878906
0, 12, 33, 461.9131774902344
0, 12, 34, 447.0864868164062
0, 12, 35, 429.2913208007812
0, 12, 36, 399.5416564941406
0, 12, 37, 416.8773498535156
0, 12, 38, 379.7821044921875
0, 12, 39, 405.6313781738281
0, 12, 40, 386.09423828125
0, 12, 41, 394.9434814453125
0, 12, 42, 370.0908508300781
0, 12, 43, 381.6448059082031
0, 12, 44, 343.815185546875
0, 12, 45, 352.0554809570312
0, 12, 46, 283.6155700683594
0, 12, 47, 286.8568725585938
0, 12, 48, 307.5664367675781
0, 12, 49, 290.6202697753906
0, 13, 0, 336.1014709472656
0, 13, 1, 318.8005065917969
0, 13, 2, 352.0503845214844
0, 13, 3, 346.5574645996094
0, 13, 4, 378.1050720214844
0, 13, 5, 358.3087768554688
0, 13, 6, 376.8568725585938
0, 13, 7, 373.2912292480469
0, 13, 8, 399.6470642089844
0, 13, 9, 389.3489074707031
0, 13, 10, 397.0102844238281
0, 13, 11, 409.9532165527344
0, 13, 12, 435.7359619140625
0, 13, 13, 441.5730285644531
0, 13, 14, 441.2181396484375
0, 13, 15, 452.3606872558594
0, 13, 16, 490.8760986328125
0, 13, 17, 457.4595336914062
0, 13, 18, 468.4298095703125
0, 13, 19, 454.2529907226562
0, 13, 20, 491.2305603027344
0, 13, 21, 485.1432495117188
0, 13, 22, 459.8763427734375
0, 13, 23, 463.6144104003906
0, 13, 24, 456.7012939453125
0, 13, 25, 523.4674072265625
0, 13, 26, 452.7068786621094
0, 13, 27, 458.5910339355469
0, 13, 28, 465.2424011230469
0, 13, 29, 468.2602844238281
0, 13, 30, 472.1398010253906
0, 13, 31, 460.0880432128906
0, 13, 32, 470.4971618652344
0, 13, 33, 447.8255615234375
0, 13, 34, 481.8241577148438
0, 13, 35, 416.3612976074219
0, 13, 36, 442.1924438476562
0, 13, 37, 393.61962890625
0, 13, 38, 401.8836059570312
0, 13, 39, 415.3482971191406
0, 13, 40, 402.9558715820312
0, 13, 41, 381.6023559570312
0, 13, 42, 389.2164916992188
0, 13, 43, 415.6607971191406
0, 13, 44, 354.7713317871094
0, 13, 45, 353.134765625
0, 13, 46, 363.5546264648438
0, 13, 47, 323.192138671875
0, 13, 48, 306.6790161132812
0, 13, 49, 299.1805419921875
0, 14, 0, 325.514404296875
0, 14, 1, 349.7461547851562
0, 14, 2, 313.3653869628906
0, 14, 3, 353.0231323242188
0, 14, 4, 371.2000122070312
0, 14, 5, 391.0149230957031
0, 14, 6, 388.0993957519531
0, 14, 7, 379.0617065429688
0, 14, 8, 392.9700317382812
0, 14, 9, 428.2709655761719
0, 14, 10, 430.3434448242188
0, 14, 11, 434.46875
0, 14, 12, 418.8541564941406
0, 14, 13, 465.8603210449219
0, 14, 14, 437.7863464355469
0, 14, 15, 435.7077026367188
0, 14, 16, 439.5508422851562
0, 14, 17, 426.8790893554688
0, 14, 18, 491.3298645019531
0, 14, 19, 454.1606140136719
0, 14, 20, 471.0374755859375
0, 14, 21, 461.5534362792969
0, 14, 22, 476.7575378417969
0, 14, 23, 465.0454406738281
0, 14, 24, 455.0457153320312
0, 14, 25, 461.6145324707031
0, 14, 26, 465.9192810058594
0, 14, 27, 473.0435180664062
0, 14, 28, 460.7037048339844
0, 14, 29, 459.2073059082031
0, 14, 30, 478.25732421875
0, 14, 31, 452.1748352050781
0, 14, 32, 430.0222473144531
0, 14, 33, 441.7344055175781
0, 14, 34, 461.3630981445312
0, 14, 35, 463.3611450195312
0, 14, 36, 420.8050231933594
0, 14, 37, 451.2080993652344
0, 14, 38, 413.8937072753906
0, 14, 39, 401.8838806152344
0, 14, 40, 411.8860473632812
0, 14, 41, 395.9578857421875
0, 14, 42, 413.1053771972656
0, 14, 43, 393.8421325683594
0, 14, 44, 352.0381164550781
0, 14, 45, 344.6888427734375
0, 14, 46, 336.2061157226562
0, 14, 47, 349.5001220703125
0, 14, 48, 316.8620300292969
0, 14, 49, 320.9567260742188
0, 15, 0, 338.2190551757812
0, 15, 1, 323.728515625
0, 15, 2, 332.1302795410156
0, 15, 3, 321.9059143066406
0, 15, 4, 356.1027221679688
0, 15, 5, 360.8509216308594
0, 15, 6, 427.9071655273438
0, 15, 7, 463.7156677246094
0, 15, 8, 408.1581726074219
0, 15, 9, 415.7987060546875
0, 15, 10, 442.2007141113281
0, 15, 11, 425.0004272460938
0, 15, 12, 447.5547485351562
0, 15, 13, 469.0751037597656
0, 15, 14, 438.5825500488281
0, 15, 15, 443.2152709960938
0, 15, 16, 480.3162841796875
0, 15, 17, 436.9479370117188
0, 15, 18, 483.7402648925781
0, 15, 19, 529.9698486328125
0, 15, 20, 476.1518249511719
0, 15, 21, 464.8334045410156
0, 15, 22, 462.7342224121094
0, 15, 23, 467.1086120605469
0, 15, 24, 488.2064208984375
0, 15, 25, 471.41064453125
0, 15, 26, 526.4608764648438
0, 15, 27, 455.642578125
0, 15, 28, 444.3824157714844
0, 15, 29, 451.6803588867188
0, 15, 30, 489.9871520996094
0, 15, 31, 486.4601440429688
0, 15, 32, 460.1830444335938
0, 15, 33, 467.6794128417969
0, 15, 34, 489.5947875976562
0, 15, 35, 465.3193359375
0, 15, 36, 465.4613952636719
0, 15, 37, 461.1103820800781
0, 15, 38, 444.4710388183594
0, 15, 39, 449.8088073730469
0, 15, 40, 425.8704833984375
0, 15, 41, 412.3895263671875
0, 15, 42, 395.5032348632812
0, 15, 43, 360.2897033691406
0, 15, 44, 372.5589599609375
0, 15, 45, 367.1257934570312
0, 15, 46, 327.4269714355469
0, 15, 47, 370.6757202148438
0, 15, 48, 316.994140625
0, 15, 49, 311.1576843261719
0, 16, 0, 346.564697265625
0, 16, 1, 402.9140014648438
0, 16, 2, 344.2110290527344
0, 16, 3, 361.8688659667969
0, 16, 4, 389.7860717773438
0, 16, 5, 371.0353698730469
0, 16, 6, 387.0445556640625
0, 16, 7, 413.4569396972656
0, 16, 8, 391.0015563964844
0, 16, 9, 434.6341247558594
0, 16, 10, 443.4854736328125
0, 16, 11, 431.2567443847656
0, 16, 12, 483.0567321777344
0, 16, 13, 461.2352294921875
0, 16, 14, 448.9508056640625
0, 16, 15, 473.3255310058594
0, 16, 16, 514.455810546875
0, 16, 17, 486.6318054199219
0, 16, 18, 473.0502014160156
0, 16, 19, 495.6548156738281
0, 16, 20, 505.3547058105469
0, 16, 21, 504.3399047851562
0, 16, 22, 530.0214233398438
0, 16, 23, 514.9476318359375
0, 16, 24, 489.2151184082031
0, 16, 25, 537.2799682617188
0, 16, 26, 548.1646118164062
0, 16, 27, 497.1155700683594
0, 16, 28, 504.604248046875
0, 16, 29, 481.0534973144531
0, 16, 30, 475.0402221679688
0, 16, 31, 469.2169189453125
0, 16, 32, 471.6746520996094
0, 16, 33, 459.1859436035156
0, 16, 34, 514.6121215820312
0, 16, 35, 456.8986206054688
0, 16, 36, 429.4664611816406
0, 16, 37, 454.8502807617188
0, 16, 38, 443.0538940429688
0, 16, 39, 451.3749694824219
0, 16, 40, 427.6939697265625
0, 16, 41, 422.2043762207031
0, 16, 42, 428.496826171875
0, 16, 43, 369.2155456542969
0, 16, 44, 399.8924865722656
0, 16, 45, 401.7587890625
0, 16, 46, 369.6135559082031
0, 16, 47, 354.1530151367188
0, 16, 48, 328.9540710449219
0, 16, 49, 313.8120727539062
0, 17, 0, 334.2070007324219
0, 17, 1, 342.9447021484375
0, 17, 2, 389.2288208007812
0, 17, 3, 371.9059448242188
0, 17, 4, 392.5509033203125
0, 17, 5, 412.9322814941406
0, 17, 6, 396.8971862792969
0, 17, 7, 410.1441650390625
0, 17, 8, 449.5799865722656
0, 17, 9, 429.2732849121094
0, 17, 10, 434.6624145507812
0, 17, 11, 457.470458984375
0, 17, 12, 474.20654296875
0, 17, 13, 424.4145812988281
0, 17, 14, 457.38916015625
0, 17, 15, 448.3048400878906
0, 17, 16, 514.6861572265625
0, 17, 17, 487.4696960449219
0, 17, 18, 462.6607971191406
0, 17, 19, 524.4244995117188
0, 17, 20, 509.0584716796875
0, 17, 21, 504.413818359375
0, 17, 22, 509.3502197265625
0, 17, 23, 500.0138549804688
0, 17, 24, 486.0249328613281
0, 17, 25, 497.779052734375
0, 17, 26, 517.4441528320312
0, 17, 27, 521.2958984375
0, 17, 28, 502.9378051757812
0, 17, 29, 513.3271484375
0, 17, 30, 468.0577697753906
0, 17, 31, 515.0369262695312
0, 17, 32, 487.1034545898438
0, 17, 33, 477.6354370117188
0, 17, 34, 466.05419921875
0, 17, 35, 454.4641418457031
0, 17, 36, 491.1859130859375
0, 17, 37, 460.6520080566406
0, 17, 38, 432.5399169921875
0, 17, 39, 461.5954284667969
0, 17, 40, 392.5478820800781
0, 17, 41, 410.864501953125
0, 17, 42, 408.3205871582031
0, 17, 43, 418.5506591796875
0, 17, 44, 393.97900390625
0, 17, 45, 370.2046508789062
0, 17, 46, 356.9152221679688
0, 17, 47, 373.8140869140625
0, 17, 48, 363.7381286621094
0, 17, 49, 370.7890930175781
0, 18, 0, 363.4598388671875
0, 18, 1, 386.410888671875
0, 18, 2, 391.9013671875
0, 18, 3, 387.4127502441406
0, 18, 4, 405.9695129394531
0, 18, 5, 411.6235656738281
0, 18, 6, 421.1352233886719
0, 18, 7, 443.0525817871094
0, 18, 8, 427.2709350585938
0, 18, 9, 432.8504638671875
0, 18, 10, 438.693359375
0, 18, 11, 428.2788696289062
0, 18, 12, 461.9672241210938
0, 18, 13, 447.2454223632812
0, 18, 14, 496.4421081542969
0, 18, 15, 493.0474548339844
0, 18, 16, 516.59423828125
0, 18, 17, 469.1448974609375
0, 18, 18, 485.7672119140625
0, 18, 19, 544.387939453125
0, 18, 20, 506.3504028320312
0, 18, 21, 531.1843872070312
0, 18, 22, 506.2807312011719
0, 18, 23, 531.4894409179688
0, 18, 24, 536.3369140625
0, 18, 25, 550.1611328125
0, 18, 26, 510.4973449707031
0, 18, 27, 539.7415161132812
0, 18, 28, 517.3147583007812
0, 18, 29, 534.8055419921875
0, 18, 30, 530.2791137695312
0, 18, 31, 510.3936767578125
0, 18, 32, 477.395751953125
0, 18, 33, 502.9363098144531
0, 18, 34, 508.5234069824219
0, 18, 35, 472.7578125
0, 18, 36, 476.9164428710938
0, 18, 37, 449.4200439453125
0, 18, 38, 436.7946166992188
0, 18, 39, 432.2578430175781
0, 18, 40, 437.4801940917969
0, 18, 41, 437.4796447753906
0, 18, 42, 415.3752136230469
0, 18, 43, 396.2568054199219
0, 18, 44, 391.39208984375
0, 18, 45, 393.0133361816406
0, 18, 46, 362.2777099609375
0, 18, 47, 379.9597778320312
0, 18, 48, 368.5026550292969
0, 18, 49, 389.315673828125
0, 19, 0, 356.1345520019531
0, 19, 1, 385.0773315429688
0, 19, 2, 387.4153137207031
0, 19, 3, 390.0436401367188
0, 19, 4, 413.728759765625
0, 19, 5, 421.7108154296875
0, 19, 6, 443.2014770507812
0, 19, 7, 473.9511413574219
0, 19, 8, 421.9784240722656
0, 19, 9, 412.1776428222656
0, 19, 10, 453.67333984375
0, 19, 11, 461.0341491699219
0, 19, 12, 427.5984802246094
0, 19, 13, 480.0591125488281
0, 19, 14, 441.2998046875
0, 19, 15, 479.7177734375
0, 19, 16, 526.4933471679688
0, 19, 17, 476.3576354980469
0, 19, 18, 507.4291687011719
0, 19, 19, 497.5323181152344
0, 19, 20, 522.1437377929688
0, 19, 21, 509.6936645507812
0, 19, 22, 497.8752746582031
0, 19, 23, 542.8497924804688
0, 19, 24, 558.6927490234375
0, 19, 25, 531.97314453125
0, 19, 26, 560.2542724609375
0, 19, 27, 519.721435546875
0, 19, 28, 533.7356567382812
0, 19, 29, 511.679931640625
0, 19, 30, 518.2543334960938
0, 19, 31, 515.3854370117188
0, 19, 32, 495.7282104492188
0, 19, 33, 540.3062744140625
0, 19, 34, 509.2961730957031
0, 19, 35, 474.3980102539062
0, 19, 36, 465.8160400390625
0, 19, 37, 432.52099609375
0, 19, 38, 472.5301818847656
0, 19, 39, 475.2888488769531
0, 19, 40, 443.5293884277344
0, 19, 41, 425.374755859375
0, 19, 42, 387.452392578125
0, 19, 43, 446.6413269042969
0, 19, 44, 406.5408325195312
0, 19, 45, 395.5765991210938
0, 19, 46, 371.7299194335938
0, 19, 47, 366.4472351074219
0, 19, 48, 345.1664733886719
0, 19, 49, 363.7059326171875
0, 20, 0, 374.5324401855469
0, 20, 1, 369.9059753417969
0, 20, 2, 402.278564453125
0, 20, 3, 388.7142639160156
0, 20, 4, 398.3480529785156
0, 20, 5, 414.0109558105469
0, 20, 6, 396.0718383789062
0, 20, 7, 440.3854370117188
0, 20, 8, 461.4809875488281
0, 20, 9, 439.1154479980469
0, 20, 10, 498.3048095703125
0, 20, 11, 471.37451171875
0, 20, 12, 478.1849060058594
0, 20, 13, 491.366455078125
0, 20, 14, 493.0825805664062
0, 20, 15, 468.7665100097656
0, 20, 16, 553.1615600585938
0, 20, 17, 531.5586547851562
0, 20, 18, 531.6060180664062
0, 20, 19, 518.6781616210938
0, 20, 20, 504.8505554199219
0, 20, 21, 536.42138671875
0, 20, 22, 553.7591552734375
0, 20, 23, 525.682861328125
0, 20, 24, 502.0827331542969
0, 20, 25, 567.6582641601562
0, 20, 26, 492.4222106933594
0, 20, 27, 505.9067687988281
0, 20, 28, 532.7026977539062
0, 20, 29, 528.0333251953125
0, 20, 30, 513.347412109375
0, 20, 31, 526.5780639648438
0, 20, 32, 533.36865234375
0, 20, 33, 517.010009765625
0, 20, 34, 515.4212036132812
0, 20, 35, 489.1084899902344
0, 20, 36, 485.3908996582031
0, 20, 37, 462.0784301757812
0, 20, 38, 482.4203796386719
0, 20, 39, 435.8622741699219
0, 20, 40, 442.8878479003906
0, 20, 41, 464.4306640625
0, 20, 42, 437.1651916503906
0, 20, 43, 419.099609375
0, 20, 44, 413.5151977539062
0, 20, 45, 423.8076782226562
0, 20, 46, 399.1451416015625
0, 20, 47, 376.5150451660156
0, 20, 48, 373.5406188964844
0, 20, 49, 409.3057556152344
0, 21, 0, 356.2767333984375
0, 21, 1, 346.0565185546875
0, 21, 2, 373.7765808105469
0, 21, 3, 384.2260437011719
0, 21, 4, 429.0803527832031
0, 21, 5, 413.3155212402344
0, 21, 6, 396.3459167480469
0, 21, 7, 425.2721862792969
0, 21, 8, 442.9978332519531
0, 21, 9, 430.7537536621094
