# TOPAS Version: 3.7
# Parameter File: TestingDose9.txt
# Results for scorer TestingDose9_Bone
# Scored in component: Bone
# X in 50 bins of 0.1 cm
# Y in 50 bins of 0.1 cm
# Z in 20 bins of 0.1 cm
# DoseToMedium ( Gy ) : Sum   Standard_Deviation   
0, 0, 0, 3.255171421301384e-08, 4.945020039240114e-12
0, 0, 1, 1.229956669845933e-08, 2.055224427144579e-12
0, 0, 2, 2.329893433739016e-08, 3.601330415664892e-12
0, 0, 3, 6.829573795386068e-09, 1.000595933045602e-12
0, 0, 4, 1.464584098442856e-08, 2.089398119770018e-12
0, 0, 5, 1.828356488431382e-08, 2.991462844568526e-12
0, 0, 6, 1.243471814404984e-08, 2.678387180277199e-12
0, 0, 7, 7.801623347347686e-09, 1.211241696606163e-12
0, 0, 8, 2.748525851359318e-09, 6.845685299363357e-13
0, 0, 9, 2.493954376348029e-08, 3.626052407997233e-12
0, 0, 10, 2.249242925245198e-08, 3.078454805612857e-12
0, 0, 11, 1.760796841665524e-08, 2.844470105089131e-12
0, 0, 12, 2.169384671901753e-08, 3.234260060490556e-12
0, 0, 13, 7.174397964604395e-09, 1.04769942744485e-12
0, 0, 14, 2.568674695169193e-08, 3.86236395647029e-12
0, 0, 15, 3.04707192810838e-08, 4.04478698981679e-12
0, 0, 16, 2.214150462975795e-08, 3.214702120935829e-12
0, 0, 17, 1.820025197218911e-08, 2.51212187888433e-12
0, 0, 18, 8.757586655860905e-09, 1.804072619400916e-12
0, 0, 19, 2.148731503837098e-08, 2.666680824967404e-12
0, 1, 0, 1.445821862233743e-08, 2.714115977094392e-12
0, 1, 1, 2.578491553606455e-08, 3.641222675158418e-12
0, 1, 2, 1.298735341492829e-08, 1.785495334740474e-12
0, 1, 3, 2.63852282245125e-08, 3.909087798883542e-12
0, 1, 4, 4.178299040091815e-09, 6.948510810398357e-13
0, 1, 5, 2.140409094408824e-08, 3.097792273980541e-12
0, 1, 6, 3.639885504114204e-09, 5.638337623710504e-13
0, 1, 7, 1.527037873927384e-08, 2.931323085202656e-12
0, 1, 8, 3.269486725798743e-08, 4.417461940754571e-12
0, 1, 9, 2.74654805565433e-08, 4.541114183773723e-12
0, 1, 10, 2.828461198589594e-08, 4.172109962120181e-12
0, 1, 11, 2.191739056911501e-08, 3.377277643319353e-12
0, 1, 12, 1.080547207266136e-08, 2.276761322640699e-12
0, 1, 13, 1.000182958676987e-08, 1.369898288391288e-12
0, 1, 14, 1.612883515633712e-08, 2.925687450275764e-12
0, 1, 15, 2.19395310807613e-08, 3.721847085712095e-12
0, 1, 16, 1.945827143856604e-08, 2.686224615005127e-12
0, 1, 17, 1.286668815936309e-08, 1.795931688154349e-12
0, 1, 18, 1.655375037046269e-08, 2.699531208356713e-12
0, 1, 19, 2.697015766273125e-08, 4.129128388356178e-12
0, 2, 0, 2.181165292824971e-08, 3.713834813514841e-12
0, 2, 1, 2.465183390754078e-09, 6.695485069304715e-13
0, 2, 2, 2.123363174177939e-08, 3.009414538716228e-12
0, 2, 3, 7.329457041294063e-09, 9.884173239661975e-13
0, 2, 4, 1.906445490362785e-08, 3.359589468919617e-12
0, 2, 5, 1.717042685811521e-08, 2.493180074238494e-12
0, 2, 6, 1.928502868508986e-08, 2.836963815376441e-12
0, 2, 7, 2.119347897178159e-08, 3.542176895071292e-12
0, 2, 8, 1.831391749362865e-08, 3.124476301974956e-12
0, 2, 9, 9.377355780770813e-09, 1.300320216907267e-12
0, 2, 10, 1.708028030122932e-08, 3.290237872141943e-12
0, 2, 11, 2.003975119180268e-08, 3.299684244161924e-12
0, 2, 12, 1.467649912711977e-08, 2.675730781788237e-12
0, 2, 13, 9.458160477038291e-09, 1.050115701280642e-12
0, 2, 14, 1.862898280080572e-08, 2.503738806272747e-12
0, 2, 15, 2.286049571864623e-08, 3.4504103362723e-12
0, 2, 16, 2.337657001305615e-08, 2.917170507648993e-12
0, 2, 17, 2.068152582523908e-08, 3.03186112133546e-12
0, 2, 18, 1.131296212264488e-08, 2.318967429510327e-12
0, 2, 19, 1.577246422357348e-08, 2.797237407795375e-12
0, 3, 0, 2.981641245014544e-08, 3.834652355956007e-12
0, 3, 1, 3.039091467371691e-08, 4.0619710190333e-12
0, 3, 2, 2.171731061650917e-08, 2.941746778042609e-12
0, 3, 3, 1.203200472588151e-08, 2.062012223460039e-12
0, 3, 4, 4.859876767682181e-08, 5.294097290894489e-12
0, 3, 5, 3.542021431712783e-08, 4.903856759676091e-12
0, 3, 6, 1.14736549150507e-08, 2.080838861687814e-12
0, 3, 7, 1.287102691094333e-08, 1.503288137630426e-12
0, 3, 8, 2.041293889476492e-08, 3.148230735669718e-12
0, 3, 9, 3.026189787647127e-08, 3.960437378045974e-12
0, 3, 10, 7.813274471857312e-09, 1.176562660973848e-12
0, 3, 11, 1.359712342718922e-08, 2.161494802191564e-12
0, 3, 12, 2.478293659180508e-08, 3.77353409034006e-12
0, 3, 13, 3.127146186443497e-08, 4.215151745023857e-12
0, 3, 14, 2.373005791866944e-08, 2.813495196127445e-12
0, 3, 15, 2.245853814031307e-08, 2.508680877077185e-12
0, 3, 16, 9.586621274593199e-09, 1.576489011231057e-12
0, 3, 17, 1.596959720018276e-08, 1.979742330009373e-12
0, 3, 18, 1.601055110711513e-08, 2.462393650638562e-12
0, 3, 19, 2.621686689963099e-08, 3.203329402455454e-12
0, 4, 0, 3.25929292444016e-08, 4.116976808471682e-12
0, 4, 1, 1.467386478992694e-08, 2.801627235272947e-12
0, 4, 2, 1.664246163102234e-08, 2.843903304019208e-12
0, 4, 3, 2.937497889377028e-08, 4.470265021588313e-12
0, 4, 4, 2.145485744620146e-08, 2.146682289334431e-12
0, 4, 5, 1.266667748467398e-08, 2.367667875401557e-12
0, 4, 6, 2.820888767018914e-08, 4.180934591657003e-12
0, 4, 7, 1.282706740823869e-08, 1.396215206294587e-12
0, 4, 8, 3.584536756306989e-08, 4.481605498007044e-12
0, 4, 9, 3.63923113866349e-08, 3.779736951036166e-12
0, 4, 10, 2.608627092115512e-08, 3.10592027560706e-12
0, 4, 11, 1.850593811525414e-08, 3.08815025520624e-12
0, 4, 12, 2.095928763878874e-08, 2.966365274608485e-12
0, 4, 13, 2.559705336580009e-08, 3.71628326145819e-12
0, 4, 14, 4.767697348029287e-08, 5.311132790412159e-12
0, 4, 15, 5.328195662457347e-09, 1.433801254900241e-12
0, 4, 16, 2.522514108704854e-08, 3.177016650001507e-12
0, 4, 17, 1.982067132644261e-08, 2.348617073277175e-12
0, 4, 18, 3.859182484688972e-08, 4.869285354792412e-12
0, 4, 19, 3.920687419167734e-08, 4.624526544618007e-12
0, 5, 0, 8.639802651089212e-09, 1.71958858673259e-12
0, 5, 1, 1.879586442044001e-08, 3.605882333679624e-12
0, 5, 2, 3.446596608114305e-08, 4.489845569204345e-12
0, 5, 3, 3.755991784260004e-08, 4.398036950141017e-12
0, 5, 4, 1.64055204976421e-08, 3.012108004371686e-12
0, 5, 5, 2.275551302943768e-08, 3.176201216315746e-12
0, 5, 6, 5.99982215021555e-08, 6.135322541122423e-12
0, 5, 7, 5.161478355830695e-08, 5.30193292704107e-12
0, 5, 8, 2.565275103449949e-08, 3.777605448498572e-12
0, 5, 9, 1.965747387089323e-08, 2.365559141007054e-12
0, 5, 10, 2.193216808166198e-08, 3.739643083993764e-12
0, 5, 11, 2.609140459242099e-08, 3.79102806471948e-12
0, 5, 12, 2.029284829063727e-08, 2.791793380278636e-12
0, 5, 13, 2.862918258017544e-08, 3.608414367528906e-12
0, 5, 14, 1.489795042886044e-08, 2.304767673483627e-12
0, 5, 15, 1.005211203164436e-08, 1.234708743838667e-12
0, 5, 16, 2.014100353164849e-08, 3.327953268790767e-12
0, 5, 17, 2.004120069898363e-08, 3.197422539713405e-12
0, 5, 18, 1.665789461924305e-08, 2.432689590754221e-12
0, 5, 19, 3.103378887203689e-08, 3.986282852565925e-12
0, 6, 0, 8.867383272104234e-09, 1.173730329638945e-12
0, 6, 1, 1.708673380562686e-08, 2.915733771086084e-12
0, 6, 2, 3.415222593616818e-08, 4.439656263846192e-12
0, 6, 3, 3.424509031901835e-08, 4.383207048863537e-12
0, 6, 4, 2.627163020463286e-08, 3.60109786376634e-12
0, 6, 5, 2.364589413161866e-08, 3.509232515962681e-12
0, 6, 6, 4.414785337303329e-08, 4.854911444279698e-12
0, 6, 7, 2.838592116916061e-08, 3.750298480310791e-12
0, 6, 8, 2.900169526753871e-08, 3.588817489199747e-12
0, 6, 9, 2.363701234742166e-08, 3.20773503733791e-12
0, 6, 10, 5.466111119289963e-09, 7.703078938818404e-13
0, 6, 11, 2.930901210618231e-08, 3.508549361034201e-12
0, 6, 12, 3.282869087684048e-08, 4.271886177052815e-12
0, 6, 13, 4.363654326766664e-08, 5.198008874596926e-12
0, 6, 14, 3.464641906703037e-08, 4.216020016122703e-12
0, 6, 15, 2.719702330011842e-08, 3.511159648827698e-12
0, 6, 16, 3.382483271252568e-08, 4.12086564706014e-12
0, 6, 17, 1.944441585521872e-08, 2.499417285594941e-12
0, 6, 18, 1.510860592190966e-08, 2.719946259703381e-12
0, 6, 19, 1.039840746841492e-08, 1.446534038739343e-12
0, 7, 0, 3.421696703753696e-08, 4.622745912657564e-12
0, 7, 1, 4.631417382938707e-08, 5.00868776395471e-12
0, 7, 2, 2.021563538789906e-08, 2.387708189340132e-12
0, 7, 3, 2.53203449318562e-08, 3.158259575178084e-12
0, 7, 4, 3.351516042471303e-08, 4.417605785132627e-12
0, 7, 5, 2.244658681149758e-08, 2.348985359493416e-12
0, 7, 6, 2.161146106516298e-08, 3.081434971467229e-12
0, 7, 7, 2.346041760858952e-08, 2.995394275788883e-12
0, 7, 8, 2.135692511728848e-08, 3.213083448674173e-12
0, 7, 9, 1.651264369684213e-08, 2.106163594505093e-12
0, 7, 10, 2.842798352276077e-08, 3.627517454850256e-12
0, 7, 11, 4.569810485577364e-08, 4.902634755680735e-12
0, 7, 12, 1.991697118342017e-08, 2.756667716249071e-12
0, 7, 13, 3.994324160316864e-08, 4.698956662758731e-12
0, 7, 14, 3.020774741457899e-08, 4.331803229023199e-12
0, 7, 15, 4.958286226042219e-08, 5.111839863192579e-12
0, 7, 16, 3.618016464201901e-08, 4.249841014647614e-12
0, 7, 17, 2.777637853057513e-08, 2.977104592452362e-12
0, 7, 18, 2.76813381105967e-08, 3.801203495434332e-12
0, 7, 19, 3.533289927304395e-08, 4.054581627729146e-12
0, 8, 0, 4.277194776136639e-08, 4.625436452451266e-12
0, 8, 1, 9.084181407104097e-09, 1.284133319032754e-12
0, 8, 2, 2.198532911279472e-08, 3.97655668439354e-12
0, 8, 3, 8.891780822750661e-08, 7.320938564370742e-12
0, 8, 4, 2.65408974797765e-08, 3.717904257565766e-12
0, 8, 5, 4.143898735264884e-08, 4.965254731731391e-12
0, 8, 6, 2.328819803665283e-08, 3.435760442021726e-12
0, 8, 7, 4.94356200420043e-08, 5.524436831154151e-12
0, 8, 8, 3.820333205339921e-08, 4.139631291723028e-12
0, 8, 9, 4.216721549710201e-08, 5.032153461853151e-12
0, 8, 10, 4.711573708959804e-08, 5.103768764137208e-12
0, 8, 11, 2.256892805974076e-08, 2.471459921150064e-12
0, 8, 12, 1.306792629662823e-08, 1.4509550869187e-12
0, 8, 13, 1.147295236592072e-08, 1.906747475024111e-12
0, 8, 14, 1.655560843971671e-08, 1.969531694071695e-12
0, 8, 15, 2.624665462747089e-08, 3.04425836671428e-12
0, 8, 16, 2.887062144907304e-08, 4.309407852378307e-12
0, 8, 17, 4.21547312612347e-08, 4.867627788875207e-12
0, 8, 18, 2.962851830545787e-08, 3.649683978356283e-12
0, 8, 19, 3.110660173888391e-08, 4.436589085548314e-12
0, 9, 0, 1.294426521525338e-08, 1.811112946104854e-12
0, 9, 1, 1.965487328448035e-08, 2.546860948347513e-12
0, 9, 2, 3.206071852446257e-08, 3.837423892751916e-12
0, 9, 3, 2.508591023797635e-08, 3.150978309215936e-12
0, 9, 4, 3.941692128250907e-08, 4.87878193753368e-12
0, 9, 5, 3.344517551795434e-08, 3.339853735867277e-12
0, 9, 6, 2.680477884098309e-08, 3.894495326619445e-12
0, 9, 7, 4.057523383949047e-08, 4.579845040248023e-12
0, 9, 8, 4.410807363797176e-08, 5.394631539967869e-12
0, 9, 9, 2.145994315583266e-08, 2.475168402513964e-12
0, 9, 10, 5.26881400730872e-08, 5.638224474381567e-12
0, 9, 11, 4.827744959357005e-08, 5.183365561042352e-12
0, 9, 12, 2.669828624846105e-08, 3.365390110548301e-12
0, 9, 13, 3.90970633645793e-08, 4.41282958392953e-12
0, 9, 14, 4.174928847078263e-08, 4.547592181613278e-12
0, 9, 15, 2.604424054197807e-08, 2.41582391031154e-12
0, 9, 16, 5.061399477312989e-08, 5.577599385471494e-12
0, 9, 17, 3.093201073056662e-08, 4.167794197491156e-12
0, 9, 18, 4.244532902930587e-08, 4.978078032443381e-12
0, 9, 19, 3.699395634271241e-08, 4.693533849400956e-12
0, 10, 0, 1.646160185941881e-08, 2.179983672340366e-12
0, 10, 1, 3.199676612553048e-08, 4.154047364474606e-12
0, 10, 2, 2.633142059949023e-08, 3.179806739463967e-12
0, 10, 3, 2.727279380110303e-08, 3.612679218708211e-12
0, 10, 4, 2.162221157675503e-08, 2.999380721537156e-12
0, 10, 5, 3.227579625786348e-08, 4.70728601922516e-12
0, 10, 6, 2.929401077267357e-08, 3.882097328121506e-12
0, 10, 7, 2.02066789967148e-08, 2.886977141448947e-12
0, 10, 8, 2.159814549429484e-08, 3.151926197907072e-12
0, 10, 9, 2.373804619537623e-08, 2.784214388668362e-12
0, 10, 10, 2.746351235316524e-08, 3.653420880853425e-12
0, 10, 11, 3.928181868673164e-08, 4.094764088019466e-12
0, 10, 12, 2.100084905976018e-08, 2.625085069787418e-12
0, 10, 13, 3.554978533770736e-08, 4.248592885087846e-12
0, 10, 14, 2.686757305525589e-08, 3.55966762239438e-12
0, 10, 15, 3.39435963780943e-08, 4.009955099184588e-12
0, 10, 16, 3.24536841844747e-08, 4.338571335773188e-12
0, 10, 17, 2.412408406371469e-08, 3.053825420704793e-12
0, 10, 18, 6.186962053789102e-08, 5.729387369105507e-12
0, 10, 19, 2.680077670902392e-08, 3.459409649396169e-12
0, 11, 0, 2.449427505268886e-08, 3.239249775657482e-12
0, 11, 1, 1.839648966495133e-08, 2.801072843398641e-12
0, 11, 2, 3.136480586363177e-08, 4.151893401077464e-12
0, 11, 3, 8.058679057398876e-09, 1.104003781762918e-12
0, 11, 4, 4.313425350233047e-08, 5.199609999342787e-12
0, 11, 5, 4.938640429941188e-08, 4.970862603386077e-12
0, 11, 6, 6.542622088545613e-08, 5.577533330337082e-12
0, 11, 7, 3.070421783490929e-08, 3.046403625737487e-12
0, 11, 8, 4.331287328795952e-08, 5.656397204774176e-12
0, 11, 9, 2.185119996056528e-08, 2.404829481986123e-12
0, 11, 10, 2.536875065572985e-08, 3.555075089210519e-12
0, 11, 11, 3.705941509224431e-08, 4.182789865328372e-12
0, 11, 12, 2.485078809399965e-08, 2.787149803263295e-12
0, 11, 13, 3.75974984478944e-08, 4.540428748702085e-12
0, 11, 14, 4.251092278195756e-08, 4.475676858744949e-12
0, 11, 15, 6.303352506620286e-08, 5.929731017220053e-12
0, 11, 16, 6.709187516662496e-08, 6.250937299510556e-12
0, 11, 17, 4.753147564429128e-08, 5.503433670871939e-12
0, 11, 18, 4.458377489413579e-08, 5.1521533469344e-12
0, 11, 19, 2.850775082663404e-08, 3.725284278043974e-12
0, 12, 0, 2.725024295102685e-08, 3.115228765379729e-12
0, 12, 1, 2.771721518968207e-08, 3.349643879084265e-12
0, 12, 2, 5.955042681193845e-08, 6.156730937544736e-12
0, 12, 3, 3.457509123450109e-08, 4.477866660835021e-12
0, 12, 4, 5.108732104019964e-09, 7.984318655090205e-13
0, 12, 5, 2.690295453078306e-08, 3.676192280262601e-12
0, 12, 6, 3.625956068731284e-08, 4.213317087605943e-12
0, 12, 7, 3.214922372762885e-08, 3.940257859159412e-12
0, 12, 8, 3.778684742883343e-08, 4.585856995106184e-12
0, 12, 9, 4.43917542725103e-08, 4.398399080593486e-12
0, 12, 10, 4.345330850696882e-08, 5.02397996133157e-12
0, 12, 11, 3.05908613995598e-08, 3.711497541368401e-12
0, 12, 12, 2.890910089092813e-08, 3.62472080977163e-12
0, 12, 13, 4.777070827799434e-08, 5.284300516360724e-12
0, 12, 14, 4.745779946802031e-08, 4.319138822379882e-12
0, 12, 15, 1.725440945676837e-08, 2.936473590795782e-12
0, 12, 16, 2.23122569309453e-08, 2.796483156864025e-12
0, 12, 17, 3.388548108773648e-08, 3.310241986870839e-12
0, 12, 18, 3.947533144810222e-08, 4.531159070567598e-12
0, 12, 19, 4.073000070548005e-08, 4.488817507574714e-12
0, 13, 0, 2.211622707193328e-08, 3.811468046911741e-12
0, 13, 1, 3.742847454191178e-08, 2.956462456435715e-12
0, 13, 2, 3.473587284474888e-08, 3.821673187836732e-12
0, 13, 3, 2.488540040701537e-08, 3.268432861553218e-12
0, 13, 4, 5.862349539142997e-08, 5.715361673460892e-12
0, 13, 5, 3.265651571382477e-08, 4.261273465467561e-12
0, 13, 6, 3.277539306623112e-08, 4.22257044336431e-12
0, 13, 7, 3.303783557839779e-08, 4.018711061303169e-12
0, 13, 8, 3.250493207929139e-08, 4.016647101955179e-12
0, 13, 9, 2.650734032272339e-08, 3.372328159568971e-12
0, 13, 10, 7.123217216076227e-08, 6.209096399788995e-12
0, 13, 11, 3.745834575852314e-08, 4.802063288248854e-12
0, 13, 12, 3.566852768699391e-08, 4.304189134360329e-12
0, 13, 13, 3.371089718484654e-08, 3.227762815550104e-12
0, 13, 14, 1.626960610678907e-08, 2.222360457227603e-12
0, 13, 15, 2.330676096562456e-08, 3.149878294177163e-12
0, 13, 16, 1.2870588150804e-08, 1.977485656185018e-12
0, 13, 17, 2.495664119805951e-08, 2.858363445047228e-12
0, 13, 18, 4.826243227284976e-08, 4.821445416484012e-12
0, 13, 19, 5.374944223035527e-08, 5.614813656914193e-12
0, 14, 0, 6.648685513255259e-08, 6.406667559452793e-12
0, 14, 1, 2.814536870232587e-08, 2.194474995475841e-12
0, 14, 2, 2.360087769659458e-08, 3.366475499155846e-12
0, 14, 3, 2.941816390489294e-08, 4.237934882511411e-12
0, 14, 4, 7.28175209019355e-08, 6.715128968608283e-12
0, 14, 5, 5.199020591817316e-08, 5.274867687930126e-12
0, 14, 6, 3.429433093060652e-08, 4.381322150677816e-12
0, 14, 7, 2.374118324155461e-08, 3.280280323304281e-12
0, 14, 8, 3.079557586715964e-08, 3.301638246957279e-12
0, 14, 9, 2.421499090132784e-08, 2.953293297441243e-12
0, 14, 10, 8.693049835528655e-08, 7.642103562780558e-12
0, 14, 11, 3.870010090167852e-08, 4.228050914062829e-12
0, 14, 12, 5.573911820988542e-08, 5.454732368987212e-12
0, 14, 13, 4.351991478301898e-08, 4.825611551529758e-12
0, 14, 14, 2.744984328728606e-08, 4.022777319735649e-12
0, 14, 15, 1.989765152643486e-08, 2.303312387414506e-12
0, 14, 16, 2.888504013753845e-08, 3.116215018631013e-12
0, 14, 17, 2.706121904338943e-08, 2.958510601488903e-12
0, 14, 18, 5.393890489813202e-08, 5.697249042782727e-12
0, 14, 19, 5.260598712197861e-08, 5.235518276572225e-12
0, 15, 0, 3.81412270655801e-08, 3.35427704302563e-12
0, 15, 1, 3.705885731619674e-08, 4.060370356959722e-12
0, 15, 2, 2.185733016801805e-08, 3.263300915403113e-12
0, 15, 3, 2.685153432935294e-08, 3.02028250556403e-12
0, 15, 4, 4.480205362256129e-08, 4.421128108639692e-12
0, 15, 5, 4.056593638779304e-08, 4.777188076063705e-12
0, 15, 6, 4.445602641567348e-08, 4.568860731953426e-12
0, 15, 7, 3.445810747848554e-08, 3.483207314381228e-12
0, 15, 8, 5.100217137510299e-08, 5.715478407363862e-12
0, 15, 9, 6.882775238636896e-08, 6.54378563730152e-12
0, 15, 10, 1.788472836494748e-08, 2.730309411114993e-12
0, 15, 11, 2.437268520338876e-08, 2.853635920555609e-12
0, 15, 12, 4.524560281993217e-08, 4.936640125908997e-12
0, 15, 13, 3.642173140860905e-08, 4.596343528687206e-12
0, 15, 14, 9.373734677353696e-09, 1.188455653139192e-12
0, 15, 15, 1.871543986453617e-08, 2.288844587833571e-12
0, 15, 16, 2.283595357255308e-08, 2.783300511189884e-12
0, 15, 17, 6.586196121816101e-08, 6.328664631366182e-12
0, 15, 18, 5.550288406652726e-08, 4.886609535258883e-12
0, 15, 19, 5.770626998469197e-08, 5.781208612266426e-12
0, 16, 0, 3.060926800912966e-08, 4.389928445143214e-12
0, 16, 1, 3.990851737967205e-08, 4.43021885507489e-12
0, 16, 2, 3.627459577160153e-08, 3.80613724702017e-12
0, 16, 3, 6.325659285266738e-08, 6.149474107531078e-12
0, 16, 4, 1.550831996155466e-08, 2.019790513326957e-12
0, 16, 5, 3.915573643098469e-08, 4.016917617665947e-12
0, 16, 6, 7.074853414223981e-08, 6.276685232784564e-12
0, 16, 7, 4.112013485269017e-08, 4.321653550794479e-12
0, 16, 8, 3.568240103390963e-08, 4.56427296754446e-12
0, 16, 9, 2.721193403942834e-08, 3.083172394486448e-12
0, 16, 10, 7.578125860163709e-08, 6.81355757358619e-12
0, 16, 11, 3.538448822837381e-08, 4.162660530521595e-12
0, 16, 12, 2.813310473470665e-08, 3.575263654230612e-12
0, 16, 13, 4.04108781992818e-08, 4.780898745988476e-12
0, 16, 14, 2.917757413456457e-08, 3.554182248226261e-12
0, 16, 15, 6.620832948556199e-08, 6.257313557915713e-12
0, 16, 16, 3.78316968863146e-08, 4.250588529793195e-12
0, 16, 17, 4.543961651393147e-08, 4.766480066655705e-12
0, 16, 18, 3.027967210300631e-08, 3.977102133202088e-12
0, 16, 19, 2.003341492695654e-08, 2.485917988653053e-12
0, 17, 0, 3.098077883123551e-08, 3.447880507671132e-12
0, 17, 1, 3.951464577767183e-08, 4.138179626786273e-12
0, 17, 2, 5.446673512210509e-08, 5.622732018462468e-12
0, 17, 3, 1.904619573167565e-08, 2.77234925939628e-12
0, 17, 4, 4.774146944441782e-08, 5.64167265496231e-12
0, 17, 5, 1.583570252705613e-08, 3.094662741653531e-12
0, 17, 6, 4.272222753343158e-08, 4.36029828508643e-12
0, 17, 7, 2.930620190966238e-08, 4.304447487723973e-12
0, 17, 8, 2.762287287794152e-08, 3.765614653350688e-12
0, 17, 9, 2.80195742163869e-08, 2.977381079473612e-12
0, 17, 10, 4.333734793249278e-08, 4.347908805336987e-12
0, 17, 11, 3.937284276389619e-08, 4.386580034874323e-12
0, 17, 12, 3.576768037305555e-08, 3.857951227797747e-12
0, 17, 13, 1.992854592458571e-08, 2.787812216215909e-12
0, 17, 14, 6.550668274485361e-08, 6.360623724886038e-12
0, 17, 15, 3.960943573133591e-08, 3.987384306405649e-12
0, 17, 16, 2.589090897231472e-08, 3.21786545638153e-12
0, 17, 17, 4.838725331524074e-08, 5.449903389507321e-12
0, 17, 18, 6.330130730702876e-08, 5.724769335099924e-12
0, 17, 19, 4.44512302522071e-08, 4.693084979161911e-12
0, 18, 0, 3.309542506713115e-08, 3.871034435808647e-12
0, 18, 1, 5.59944695055492e-08, 5.109477637887323e-12
0, 18, 2, 6.387057283063768e-08, 6.115709968957589e-12
0, 18, 3, 4.182777857408837e-08, 4.261355153673207e-12
0, 18, 4, 2.646282126761434e-08, 2.7868843675553e-12
0, 18, 5, 4.744130421840964e-08, 5.136331614967477e-12
0, 18, 6, 3.038003271171874e-08, 3.589031609299541e-12
0, 18, 7, 4.297904965255839e-08, 4.098410155485012e-12
0, 18, 8, 3.413599003465606e-08, 3.235873182693187e-12
0, 18, 9, 3.526314529267438e-08, 3.903594281419029e-12
0, 18, 10, 5.773127398356337e-08, 5.71658936917567e-12
0, 18, 11, 9.176167026225812e-08, 7.708637429921849e-12
0, 18, 12, 4.566225086932718e-08, 4.783489685112849e-12
0, 18, 13, 4.231824846101517e-08, 4.52225926333119e-12
0, 18, 14, 1.392033421865335e-08, 2.80110374406034e-12
0, 18, 15, 4.101437767189964e-08, 4.247332239521758e-12
0, 18, 16, 5.665374658292421e-08, 5.459260290740381e-12
0, 18, 17, 6.171750044359214e-08, 5.649015467299068e-12
0, 18, 18, 5.849715023487079e-08, 4.905309839117398e-12
0, 18, 19, 5.319110130130866e-08, 4.285761406345894e-12
0, 19, 0, 3.465178366468535e-08, 4.024368657111021e-12
0, 19, 1, 2.290429712559217e-08, 2.632543651492928e-12
0, 19, 2, 4.759131044806963e-08, 4.966013744359175e-12
0, 19, 3, 4.31666080658033e-08, 5.025512473785237e-12
0, 19, 4, 2.926645770173764e-08, 3.784225739974844e-12
0, 19, 5, 4.666854991342007e-08, 4.844762061033987e-12
0, 19, 6, 8.053527977835984e-08, 6.520916986027872e-12
0, 19, 7, 2.980262792107169e-08, 3.313148029950736e-12
0, 19, 8, 2.913891350431186e-08, 3.575142903259604e-12
0, 19, 9, 6.524054896317466e-08, 5.992257442659509e-12
0, 19, 10, 3.027115624831822e-08, 3.329257509199527e-12
0, 19, 11, 8.110541571682006e-09, 1.043971190514206e-12
0, 19, 12, 3.920665747614294e-08, 4.675955470242808e-12
0, 19, 13, 2.941338905770863e-08, 4.090077309862775e-12
0, 19, 14, 5.99332494743976e-08, 5.21330195494437e-12
0, 19, 15, 2.566990886521126e-08, 3.755012318112857e-12
0, 19, 16, 4.942841158595002e-08, 5.077436549354449e-12
0, 19, 17, 3.710739449047651e-08, 4.162296338950767e-12
0, 19, 18, 4.56285960126479e-08, 4.62528002194296e-12
0, 19, 19, 3.631000211612445e-08, 4.155615087446777e-12
0, 20, 0, 2.878370430892119e-08, 3.439279493629923e-12
0, 20, 1, 2.692079270616432e-08, 2.745870762425414e-12
0, 20, 2, 2.935946596949179e-08, 3.730220593014702e-12
0, 20, 3, 4.559339572551835e-08, 4.998188121627471e-12
0, 20, 4, 2.990759639942553e-08, 2.883469348496183e-12
0, 20, 5, 7.579527050438628e-08, 5.856830921006657e-12
0, 20, 6, 5.554582216404924e-08, 5.83741584393134e-12
0, 20, 7, 7.797380163765411e-08, 6.660579472102892e-12
0, 20, 8, 3.186684338629675e-08, 3.607794333439085e-12
0, 20, 9, 3.807810244893517e-08, 4.292033529870981e-12
0, 20, 10, 4.234858153040477e-08, 4.493437979618627e-12
0, 20, 11, 7.517259348333027e-08, 6.502176574014047e-12
0, 20, 12, 4.985890456055131e-08, 4.370663335338258e-12
0, 20, 13, 4.475923987001806e-08, 4.61126727410875e-12
0, 20, 14, 3.469866882710448e-08, 4.342851879386921e-12
0, 20, 15, 5.536075420309317e-08, 5.351315955236005e-12
0, 20, 16, 4.07731128859723e-08, 4.054443245994266e-12
0, 20, 17, 5.176757511549113e-08, 5.377774120124437e-12
0, 20, 18, 2.876813098851017e-08, 3.734729876878947e-12
0, 20, 19, 4.295741007354081e-08, 4.867144682411834e-12
0, 21, 0, 2.615006877704218e-08, 3.845131034203712e-12
0, 21, 1, 4.679613496705315e-08, 4.847873254190601e-12
0, 21, 2, 3.010508109468901e-08, 3.694606095254526e-12
0, 21, 3, 6.44049649167755e-08, 6.033911265631814e-12
0, 21, 4, 6.45306030833126e-08, 5.577897244656524e-12
0, 21, 5, 5.634665356524238e-08, 4.809382655793003e-12
0, 21, 6, 2.014975564179622e-08, 2.342727908924499e-12
0, 21, 7, 2.914678098875356e-08, 2.664995460856202e-12
0, 21, 8, 2.760030781701062e-08, 3.158382688015151e-12
0, 21, 9, 6.583947254057421e-08, 6.647311482826416e-12
0, 21, 10, 4.949311716018201e-08, 4.86608301482216e-12
0, 21, 11, 3.949313054363301e-08, 4.311634746244228e-12
0, 21, 12, 6.77624427680712e-08, 5.632366996022015e-12
0, 21, 13, 3.501543943684737e-08, 3.816202182292156e-12
0, 21, 14, 3.690316674465066e-08, 3.85265661671545e-12
0, 21, 15, 3.54979121652832e-08, 3.758345412306038e-12
0, 21, 16, 6.115011075280563e-08, 5.293737409500028e-12
0, 21, 17, 7.095078302654656e-08, 6.471794521927717e-12
0, 21, 18, 8.408071749954615e-08, 7.245599578196561e-12
0, 21, 19, 4.335027625756993e-08, 4.302364785816982e-12
0, 22, 0, 3.243998136781556e-08, 3.934579984568944e-12
0, 22, 1, 3.627537381589718e-08, 4.341936077069744e-12
0, 22, 2, 5.041081863055297e-08, 4.932611162632537e-12
0, 22, 3, 5.241017575485785e-08, 5.439572280392934e-12
0, 22, 4, 4.144736820421713e-08, 4.839676022933622e-12
0, 22, 5, 7.209997932022816e-08, 6.025485603084376e-12
0, 22, 6, 4.887694515787189e-08, 5.170120420160955e-12
0, 22, 7, 5.482334941575573e-08, 5.300772704744315e-12
0, 22, 8, 4.805613684766286e-08, 4.766086087601896e-12
0, 22, 9, 6.927177054194544e-08, 6.400155833457304e-12
0, 22, 10, 5.078657494550498e-08, 5.048453515471146e-12
0, 22, 11, 5.395504842908849e-08, 5.007887493018863e-12
0, 22, 12, 5.192909924289779e-08, 5.153524463122174e-12
0, 22, 13, 4.062806979732159e-08, 3.94069079141818e-12
0, 22, 14, 4.700466149643034e-08, 4.648024424470921e-12
0, 22, 15, 4.254521002167166e-08, 3.996726989885601e-12
0, 22, 16, 5.190235796703746e-08, 5.452075864585912e-12
0, 22, 17, 5.602212382882499e-08, 5.207628659731438e-12
0, 22, 18, 3.615810939550101e-08, 4.426171419323003e-12
0, 22, 19, 3.814226801068799e-08, 4.806495899843074e-12
0, 23, 0, 3.596022679630551e-08, 4.045247678137271e-12
0, 23, 1, 5.420377746645499e-08, 5.246755616085274e-12
0, 23, 2, 6.137127428473832e-08, 5.09719032877567e-12
0, 23, 3, 3.565814310491078e-08, 3.871849782025557e-12
0, 23, 4, 4.100491679537299e-08, 4.798655899423706e-12
0, 23, 5, 4.8267185803752e-08, 5.193112233192614e-12
0, 23, 6, 9.639278886197644e-08, 7.650922135725271e-12
0, 23, 7, 6.578692790526475e-08, 5.970348964825113e-12
0, 23, 8, 4.548509835444747e-08, 5.034628486531834e-12
0, 23, 9, 3.86143845787501e-08, 4.506070192221486e-12
0, 23, 10, 5.714061401818071e-08, 5.625505005073408e-12
0, 23, 11, 5.779217815415905e-08, 6.384139174322384e-12
0, 23, 12, 7.605039087366094e-08, 6.211768527377853e-12
0, 23, 13, 6.240630767706534e-08, 5.593048758874242e-12
0, 23, 14, 6.541419139693971e-08, 6.441280433191656e-12
0, 23, 15, 1.391238679815388e-08, 1.318806351711144e-12
0, 23, 16, 3.202446308137041e-08, 3.869138259613258e-12
0, 23, 17, 3.308463192297495e-08, 4.103557718928298e-12
0, 23, 18, 4.250467000588287e-08, 4.550622192597214e-12
0, 23, 19, 6.782159545082322e-08, 5.944251203569516e-12
0, 24, 0, 2.8855922096227e-08, 2.527325174389509e-12
0, 24, 1, 5.06794854970849e-08, 5.48010047676032e-12
0, 24, 2, 3.472291254524862e-08, 3.735311526591936e-12
0, 24, 3, 5.413005155219253e-08, 6.079193078638891e-12
0, 24, 4, 3.388106861734741e-08, 3.84777731793845e-12
0, 24, 5, 3.59360114998708e-08, 3.826672131229498e-12
0, 24, 6, 6.155273979402409e-08, 6.14065425739858e-12
0, 24, 7, 5.90071422834626e-08, 5.297142363380538e-12
0, 24, 8, 2.93966344599994e-08, 2.626835514647621e-12
0, 24, 9, 5.376330136641627e-08, 5.532646217305262e-12
0, 24, 10, 3.296220896231716e-08, 4.006981907143107e-12
0, 24, 11, 3.947270243997991e-08, 4.462308833684089e-12
0, 24, 12, 5.689890514304352e-08, 5.401342588701156e-12
0, 24, 13, 6.959541565265681e-08, 6.454951020902892e-12
0, 24, 14, 8.248975547076043e-08, 6.868362863366101e-12
0, 24, 15, 9.123443334146941e-08, 7.671186475995446e-12
0, 24, 16, 6.176016853487454e-08, 4.8216468284066e-12
0, 24, 17, 2.697981749122391e-08, 3.260221792373763e-12
0, 24, 18, 7.196202744808033e-08, 6.706499140804167e-12
0, 24, 19, 4.02168822688509e-08, 3.771980036068462e-12
0, 25, 0, 3.366115208791598e-08, 4.227933906809341e-12
0, 25, 1, 5.375302691845718e-08, 5.269936432012689e-12
0, 25, 2, 3.648926849564305e-08, 3.839884332426051e-12
0, 25, 3, 4.841061596039253e-08, 3.967144327624328e-12
0, 25, 4, 3.585737218259055e-08, 4.0206059689087e-12
0, 25, 5, 5.800378843900944e-08, 5.393340073886305e-12
0, 25, 6, 3.825065775231451e-08, 4.560824856153302e-12
0, 25, 7, 3.679660665056872e-08, 4.226068619508594e-12
0, 25, 8, 3.494959699423816e-08, 3.01811505865071e-12
0, 25, 9, 1.871842059131268e-08, 2.463657397841641e-12
0, 25, 10, 3.580037599704156e-08, 4.306379443413278e-12
0, 25, 11, 4.474044246194353e-08, 4.798873863382564e-12
0, 25, 12, 4.980714152225119e-08, 5.32207540657832e-12
0, 25, 13, 5.498984734231271e-08, 4.569846681497894e-12
0, 25, 14, 3.771826939669154e-08, 3.735519116427907e-12
0, 25, 15, 4.448143542390426e-08, 4.478736869085938e-12
0, 25, 16, 6.250233752780332e-08, 5.243990611161048e-12
0, 25, 17, 4.904894623791733e-08, 4.77283113382144e-12
0, 25, 18, 3.689331862233303e-08, 3.622938253912087e-12
0, 25, 19, 5.066553043775457e-08, 4.303951100511316e-12
0, 26, 0, 3.671589610121373e-08, 4.412107275677628e-12
0, 26, 1, 6.690198972592043e-08, 5.996580147888772e-12
0, 26, 2, 2.905818874410215e-08, 2.588758586839472e-12
0, 26, 3, 7.917705602267233e-08, 6.818633188156694e-12
0, 26, 4, 1.657694959078526e-08, 1.671161560557435e-12
0, 26, 5, 6.220825099489957e-08, 6.339878175815237e-12
0, 26, 6, 3.981814344911072e-08, 3.890627285826318e-12
0, 26, 7, 4.289348964903184e-08, 4.455279954335191e-12
0, 26, 8, 5.019490600943755e-08, 5.321659555215935e-12
0, 26, 9, 3.77312296961918e-08, 4.591966139694433e-12
0, 26, 10, 7.825263281802108e-08, 6.390154048451578e-12
0, 26, 11, 5.823836701779328e-08, 5.140062681222669e-12
0, 26, 12, 4.512506990295151e-08, 5.314736059708577e-12
0, 26, 13, 4.377909945674219e-08, 4.789475990763566e-12
0, 26, 14, 3.582617225106333e-08, 4.308277158414425e-12
0, 26, 15, 6.068264468694906e-08, 5.499408994769967e-12
0, 26, 16, 1.152819208982692e-07, 8.647575772925233e-12
0, 26, 17, 6.132705010486461e-08, 5.681697669767343e-12
0, 26, 18, 2.892114814301294e-08, 4.164963663103804e-12
0, 26, 19, 4.964913458138653e-08, 4.290803153166836e-12
0, 27, 0, 5.261968638592407e-08, 5.212780313840957e-12
