# TOPAS Version: 3.7
# Parameter File: TestingDose4.txt
# Results for scorer TestingDose4
# Scored in component: Phantom
# X in 50 bins of 0.1 cm
# Y in 50 bins of 0.1 cm
# Z in 50 bins of 0.1 cm
# DoseToMedium ( Gy ) : Sum   
0, 0, 0, 1.65613744940174e-08
0, 0, 1, 1.136252780753466e-08
0, 0, 2, 3.032172202210859e-08
0, 0, 3, 1.888009748540753e-08
0, 0, 4, 8.583131538841826e-09
0, 0, 5, 5.064150876421536e-09
0, 0, 6, 3.523183078613101e-09
0, 0, 7, 2.824998679429314e-09
0, 0, 8, 1.107954705759084e-08
0, 0, 9, 3.532921455384752e-10
0, 0, 10, 1.042441954979267e-08
0, 0, 11, 8.497422321340764e-09
0, 0, 12, 7.776955079918935e-09
0, 0, 13, 1.956972894845421e-08
0, 0, 14, 8.832716780204919e-09
0, 0, 15, 5.638567390775506e-09
0, 0, 16, 4.976267842238258e-09
0, 0, 17, 8.375748983269204e-09
0, 0, 18, 8.522833105928385e-09
0, 0, 19, 1.141692695938445e-08
0, 0, 20, 1.049861619861758e-08
0, 0, 21, 1.26424497537414e-08
0, 0, 22, 2.960432343712682e-09
0, 0, 23, 3.371954271358391e-09
0, 0, 24, 4.274993692376938e-09
0, 0, 25, 7.5728676662834e-09
0, 0, 26, 1.805978122604301e-08
0, 0, 27, 1.203579902409047e-08
0, 0, 28, 2.912861774007069e-08
0, 0, 29, 7.252163758408869e-09
0, 0, 30, 8.115878524783682e-10
0, 0, 31, 1.473484889658039e-08
0, 0, 32, 1.200457955263801e-09
0, 0, 33, 6.078026526523672e-09
0, 0, 34, 1.0256159477251e-08
0, 0, 35, 2.003853261101085e-08
0, 0, 36, 1.418552031395848e-08
0, 0, 37, 2.521516773157373e-09
0, 0, 38, 9.022640412581495e-09
0, 0, 39, 1.399981286454022e-08
0, 0, 40, 5.86279735870221e-09
0, 0, 41, 1.498171720015762e-08
0, 0, 42, 5.737030850383462e-09
0, 0, 43, 7.917564381898501e-09
0, 0, 44, 7.400438040150448e-09
0, 0, 45, 1.058688603450264e-08
0, 0, 46, 7.2926784611127e-09
0, 0, 47, 1.567454255280154e-08
0, 0, 48, 5.658159718535671e-09
0, 0, 49, 7.95094656780293e-09
0, 1, 0, 2.127485743130819e-08
0, 1, 1, 6.799976581817191e-09
0, 1, 2, 2.031504564570241e-08
0, 1, 3, 1.24511094767854e-08
0, 1, 4, 9.950230861477394e-09
0, 1, 5, 1.274064054257451e-08
0, 1, 6, 1.593159382196063e-08
0, 1, 7, 6.318943146510492e-09
0, 1, 8, 1.054547471568412e-08
0, 1, 9, 1.712320418789659e-08
0, 1, 10, 1.6069462205337e-08
0, 1, 11, 9.35065003204727e-09
0, 1, 12, 2.250684438820372e-08
0, 1, 13, 2.151940492467475e-08
0, 1, 14, 0
0, 1, 15, 0
0, 1, 16, 1.010935513079403e-08
0, 1, 17, 3.551133387347249e-09
0, 1, 18, 3.492371503099889e-09
0, 1, 19, 1.121578652174549e-08
0, 1, 20, 1.640398394897602e-08
0, 1, 21, 1.553904560580577e-08
0, 1, 22, 1.07292397188985e-08
0, 1, 23, 1.570540320017244e-08
0, 1, 24, 4.894727290150058e-09
0, 1, 25, 2.147441335864642e-08
0, 1, 26, 3.666100756305468e-09
0, 1, 27, 1.46411496260157e-08
0, 1, 28, 1.090280576931946e-08
0, 1, 29, 7.646189459364905e-09
0, 1, 30, 4.329200609110018e-10
0, 1, 31, 1.615310729619068e-08
0, 1, 32, 1.272104466210067e-08
0, 1, 33, 8.369466009128246e-09
0, 1, 34, 2.095616480346507e-08
0, 1, 35, 7.075914965071206e-09
0, 1, 36, 3.590181707480156e-09
0, 1, 37, 1.57500803510402e-08
0, 1, 38, 4.440588785570299e-09
0, 1, 39, 8.109688920399094e-09
0, 1, 40, 2.488559935898138e-08
0, 1, 41, 2.010649069461579e-08
0, 1, 42, 1.280710204554225e-08
0, 1, 43, 6.091264381780093e-09
0, 1, 44, 7.276704572234394e-09
0, 1, 45, 1.267917859593126e-08
0, 1, 46, 4.736004477479128e-09
0, 1, 47, 1.527234672060729e-09
0, 1, 48, 3.268857629024069e-09
0, 1, 49, 1.692075701775764e-09
0, 2, 0, 1.467266486088192e-08
0, 2, 1, 5.739324571152338e-09
0, 2, 2, 1.61219002592361e-08
0, 2, 3, 5.129118019198131e-09
0, 2, 4, 3.27144600298368e-09
0, 2, 5, 1.609675059910387e-08
0, 2, 6, 9.980256621133776e-09
0, 2, 7, 7.185114725416497e-09
0, 2, 8, 1.454436659997782e-08
0, 2, 9, 2.463715231826313e-09
0, 2, 10, 1.161865803567252e-08
0, 2, 11, 2.581073843543891e-08
0, 2, 12, 1.382184056097913e-08
0, 2, 13, 2.456800318739738e-09
0, 2, 14, 5.054123342063122e-09
0, 2, 15, 1.237531144226978e-08
0, 2, 16, 8.715595356534322e-09
0, 2, 17, 1.885849520988359e-08
0, 2, 18, 1.172739860777483e-08
0, 2, 19, 6.392517626352401e-09
0, 2, 20, 5.446308737333538e-09
0, 2, 21, 8.139577012400423e-09
0, 2, 22, 1.344936340075265e-08
0, 2, 23, 7.939352286712165e-09
0, 2, 24, 1.971600127603779e-08
0, 2, 25, 4.562995314927321e-09
0, 2, 26, 1.177540998043014e-08
0, 2, 27, 5.432938099403373e-09
0, 2, 28, 4.107842066503054e-09
0, 2, 29, 1.456715370551365e-08
0, 2, 30, 1.284869877160588e-09
0, 2, 31, 1.443592179128927e-08
0, 2, 32, 1.363664203779535e-08
0, 2, 33, 4.011154963734498e-09
0, 2, 34, 5.406760816839551e-09
0, 2, 35, 4.674886255884303e-09
0, 2, 36, 6.644351735474174e-09
0, 2, 37, 1.018979567390943e-08
0, 2, 38, 1.588405185160013e-09
0, 2, 39, 1.462652221562166e-08
0, 2, 40, 3.88704712861454e-09
0, 2, 41, 1.942994876102944e-09
0, 2, 42, 6.525148421587801e-09
0, 2, 43, 8.463743483844155e-09
0, 2, 44, 8.7799350012574e-09
0, 2, 45, 4.54611415179329e-09
0, 2, 46, 2.543152799461268e-09
0, 2, 47, 2.001691790098903e-08
0, 2, 48, 5.571541450422046e-09
0, 2, 49, 6.590907819514769e-10
0, 3, 0, 2.123182962776582e-09
0, 3, 1, 1.062222843017935e-08
0, 3, 2, 3.066893583536512e-08
0, 3, 3, 1.330658871978585e-08
0, 3, 4, 2.204270321826129e-09
0, 3, 5, 7.955111236412904e-09
0, 3, 6, 1.311790764901843e-08
0, 3, 7, 7.31193061653812e-09
0, 3, 8, 1.297146745571354e-08
0, 3, 9, 1.239965286004008e-08
0, 3, 10, 6.595846535617511e-09
0, 3, 11, 7.42942640741262e-09
0, 3, 12, 1.772143676248561e-08
0, 3, 13, 2.345683469684445e-08
0, 3, 14, 6.127958140922374e-09
0, 3, 15, 4.254281815718741e-09
0, 3, 16, 1.429237528327576e-08
0, 3, 17, 7.267044743741735e-09
0, 3, 18, 1.347404321450085e-08
0, 3, 19, 1.578049158013073e-08
0, 3, 20, 1.413432482166854e-08
0, 3, 21, 6.73256783656484e-09
0, 3, 22, 3.431228412509313e-09
0, 3, 23, 1.892839662787082e-08
0, 3, 24, 1.537585880839742e-08
0, 3, 25, 4.25878754484188e-09
0, 3, 26, 4.215619142655669e-08
0, 3, 27, 1.307229879898841e-08
0, 3, 28, 1.108324720888731e-08
0, 3, 29, 1.020391149353372e-08
0, 3, 30, 1.511379821295122e-08
0, 3, 31, 1.300677698878872e-08
0, 3, 32, 1.878665401022772e-08
0, 3, 33, 1.806868432652209e-08
0, 3, 34, 1.379639247289788e-08
0, 3, 35, 9.122606670075584e-09
0, 3, 36, 5.973673555814685e-09
0, 3, 37, 7.552458214377111e-09
0, 3, 38, 1.046829556372586e-08
0, 3, 39, 3.392405245605801e-09
0, 3, 40, 4.264510966578428e-09
0, 3, 41, 9.991220295546555e-09
0, 3, 42, 4.018388288784536e-09
0, 3, 43, 1.490110257407196e-08
0, 3, 44, 1.772360258556205e-09
0, 3, 45, 1.919926972959729e-08
0, 3, 46, 3.186979347091778e-09
0, 3, 47, 7.38716332548961e-09
0, 3, 48, 1.02235313548249e-08
0, 3, 49, 3.568790152286283e-09
0, 4, 0, 1.275486471996601e-08
0, 4, 1, 8.073771873284841e-09
0, 4, 2, 1.332560373157321e-08
0, 4, 3, 5.320881069081906e-09
0, 4, 4, 8.105183746387468e-10
0, 4, 5, 2.337053572887271e-08
0, 4, 6, 8.288972175307663e-09
0, 4, 7, 1.679752692496095e-08
0, 4, 8, 1.382388958859337e-08
0, 4, 9, 6.292524279416511e-09
0, 4, 10, 1.215735068171853e-08
0, 4, 11, 1.560170304060193e-08
0, 4, 12, 1.29285719907557e-08
0, 4, 13, 1.598731991236946e-08
0, 4, 14, 1.356446510669684e-08
0, 4, 15, 5.284577664355083e-09
0, 4, 16, 1.007056305013521e-08
0, 4, 17, 1.057127052561668e-09
0, 4, 18, 5.944016390202478e-09
0, 4, 19, 1.229247104106435e-08
0, 4, 20, 1.260881976605788e-08
0, 4, 21, 1.553582507085594e-08
0, 4, 22, 3.764071365708332e-08
0, 4, 23, 2.915275243431381e-10
0, 4, 24, 4.600586134273499e-09
0, 4, 25, 5.914523093508706e-09
0, 4, 26, 1.406640848244933e-08
0, 4, 27, 4.332138647811234e-09
0, 4, 28, 1.389268966534019e-08
0, 4, 29, 1.760559342756096e-08
0, 4, 30, 5.960095084134309e-09
0, 4, 31, 8.229226189371275e-09
0, 4, 32, 6.571834187951708e-09
0, 4, 33, 1.31857271767899e-08
0, 4, 34, 2.066236071129879e-08
0, 4, 35, 1.144529804264494e-08
0, 4, 36, 7.480436714502048e-09
0, 4, 37, 2.934899434592353e-09
0, 4, 38, 4.530025243809632e-09
0, 4, 39, 1.122416559695694e-08
0, 4, 40, 1.62804774106462e-08
0, 4, 41, 5.496874511123906e-09
0, 4, 42, 1.281646699879957e-08
0, 4, 43, 1.274050553945472e-08
0, 4, 44, 9.255641586491947e-09
0, 4, 45, 1.143933392455665e-08
0, 4, 46, 1.263495530423597e-08
0, 4, 47, 1.162820684186272e-08
0, 4, 48, 4.299421707543161e-09
0, 4, 49, 7.783671485128707e-09
0, 5, 0, 1.500427160294748e-08
0, 5, 1, 7.906829857518005e-09
0, 5, 2, 3.837891338065447e-09
0, 5, 3, 2.431374390710062e-08
0, 5, 4, 3.485233213140759e-09
0, 5, 5, 1.111725911329131e-08
0, 5, 6, 2.975751867140275e-09
0, 5, 7, 1.429321727641764e-08
0, 5, 8, 6.674016894692159e-09
0, 5, 9, 1.248288672428544e-08
0, 5, 10, 6.101930072333062e-09
0, 5, 11, 5.023043314622555e-09
0, 5, 12, 1.532740157017543e-08
0, 5, 13, 1.792760251362324e-08
0, 5, 14, 1.750091982444246e-08
0, 5, 15, 1.456767861895969e-08
0, 5, 16, 9.824610458508687e-09
0, 5, 17, 1.64822324677516e-08
0, 5, 18, 1.58943613826068e-08
0, 5, 19, 2.179417712966369e-08
0, 5, 20, 9.820215751688011e-10
0, 5, 21, 7.558934811413565e-09
0, 5, 22, 3.223699973631255e-09
0, 5, 23, 2.980291569087967e-08
0, 5, 24, 1.346442157768024e-08
0, 5, 25, 1.610350253145043e-08
0, 5, 26, 9.2187599776139e-09
0, 5, 27, 1.05620561186015e-08
0, 5, 28, 6.242494521302433e-09
0, 5, 29, 5.649003043117773e-09
0, 5, 30, 2.415188715687577e-09
0, 5, 31, 1.905801072510371e-09
0, 5, 32, 9.335971995483305e-09
0, 5, 33, 1.569478769170018e-08
0, 5, 34, 4.287166621708138e-09
0, 5, 35, 6.867118429454422e-09
0, 5, 36, 1.487802325783605e-08
0, 5, 37, 9.987246585296816e-09
0, 5, 38, 2.586284075789536e-08
0, 5, 39, 1.265784455029006e-08
0, 5, 40, 1.559704543296903e-08
0, 5, 41, 5.390212720612908e-09
0, 5, 42, 4.488815097403176e-09
0, 5, 43, 1.373808000693089e-08
0, 5, 44, 1.920147418843499e-08
0, 5, 45, 4.24157098333211e-10
0, 5, 46, 6.713249955936362e-09
0, 5, 47, 1.870770871548189e-09
0, 5, 48, 1.031988361432923e-08
0, 5, 49, 2.900002016303915e-08
0, 6, 0, 1.671627813948362e-08
0, 6, 1, 2.177489299981517e-08
0, 6, 2, 1.048956299598558e-08
0, 6, 3, 9.354147678664049e-09
0, 6, 4, 1.327421228491943e-10
0, 6, 5, 4.710698497945032e-09
0, 6, 6, 1.48755727735761e-08
0, 6, 7, 1.289334683463039e-08
0, 6, 8, 2.078601468724628e-08
0, 6, 9, 1.227081103394312e-08
0, 6, 10, 2.671188603642349e-08
0, 6, 11, 3.553135030642807e-08
0, 6, 12, 1.28185151382354e-08
0, 6, 13, 7.400740464902356e-09
0, 6, 14, 9.301902359482028e-09
0, 6, 15, 2.051644365508309e-08
0, 6, 16, 1.345112377038049e-08
0, 6, 17, 1.781216596441482e-08
0, 6, 18, 1.244773528696896e-08
0, 6, 19, 9.783649446148956e-09
0, 6, 20, 4.205262804646281e-09
0, 6, 21, 1.571027219426924e-08
0, 6, 22, 1.614011857498099e-08
0, 6, 23, 7.704853643986098e-09
0, 6, 24, 1.982186503823868e-08
0, 6, 25, 1.449508957307444e-08
0, 6, 26, 2.323383085922615e-08
0, 6, 27, 8.022126074536118e-09
0, 6, 28, 9.70737090710827e-09
0, 6, 29, 7.304512106287575e-09
0, 6, 30, 1.054284215484813e-08
0, 6, 31, 3.762004752161374e-08
0, 6, 32, 2.136689225551436e-08
0, 6, 33, 1.150562489726781e-08
0, 6, 34, 5.954620352355278e-09
0, 6, 35, 7.630207576880821e-09
0, 6, 36, 2.167110935147321e-09
0, 6, 37, 1.707050856225578e-08
0, 6, 38, 2.090791539899328e-08
0, 6, 39, 1.067994048753462e-08
0, 6, 40, 1.246354930373172e-08
0, 6, 41, 1.414083428130652e-08
0, 6, 42, 2.647621499818342e-08
0, 6, 43, 1.017770046018995e-08
0, 6, 44, 1.558777107391052e-08
0, 6, 45, 7.12545578096524e-09
0, 6, 46, 1.403406102440385e-08
0, 6, 47, 2.448113534114782e-08
0, 6, 48, 6.871075264314186e-09
0, 6, 49, 1.466480936684889e-09
0, 7, 0, 1.065403854028091e-08
0, 7, 1, 9.22109766321455e-09
0, 7, 2, 1.560437290493155e-08
0, 7, 3, 1.242948677315781e-08
0, 7, 4, 4.058098301840118e-09
0, 7, 5, 1.21021566101831e-08
0, 7, 6, 7.186879980025651e-09
0, 7, 7, 6.607152602811084e-09
0, 7, 8, 9.472401529819763e-09
0, 7, 9, 1.802158600128223e-08
0, 7, 10, 1.192312826248099e-08
0, 7, 11, 1.389097370463332e-08
0, 7, 12, 1.934573035100584e-08
0, 7, 13, 2.363763940138597e-08
0, 7, 14, 1.271443750283652e-08
0, 7, 15, 6.282062869900074e-09
0, 7, 16, 7.39957206619124e-09
0, 7, 17, 2.762687412172227e-09
0, 7, 18, 1.152852480146294e-08
0, 7, 19, 2.500433282648373e-08
0, 7, 20, 1.589919840228049e-08
0, 7, 21, 1.976756003330138e-08
0, 7, 22, 1.721127063092354e-08
0, 7, 23, 3.979667440034973e-08
0, 7, 24, 3.422919192530571e-08
0, 7, 25, 4.121776697729729e-08
0, 7, 26, 6.849480094217597e-09
0, 7, 27, 4.015211985120004e-08
0, 7, 28, 1.340050559406336e-08
0, 7, 29, 1.148538419926126e-08
0, 7, 30, 2.153844391727944e-08
0, 7, 31, 9.795404487533688e-09
0, 7, 32, 1.666092686036791e-08
0, 7, 33, 5.680622638948307e-09
0, 7, 34, 1.376650793361023e-08
0, 7, 35, 9.064183181806129e-09
0, 7, 36, 4.576347745199882e-09
0, 7, 37, 1.921030801099732e-08
0, 7, 38, 5.932188518187331e-09
0, 7, 39, 2.532010823230735e-09
0, 7, 40, 2.24265654935607e-08
0, 7, 41, 8.845635335319457e-09
0, 7, 42, 5.040972528291832e-09
0, 7, 43, 1.282486472575783e-08
0, 7, 44, 1.757870293772612e-08
0, 7, 45, 6.188816126240226e-09
0, 7, 46, 1.930390292059769e-09
0, 7, 47, 6.947847630556225e-09
0, 7, 48, 2.760503114984658e-08
0, 7, 49, 1.515858194522934e-08
0, 8, 0, 1.182595710247369e-08
0, 8, 1, 7.56057705331159e-09
0, 8, 2, 1.969356411279932e-08
0, 8, 3, 4.134003361855321e-09
0, 8, 4, 1.092264234614504e-08
0, 8, 5, 1.304676100488678e-08
0, 8, 6, 1.524296955324189e-08
0, 8, 7, 9.097156805637496e-09
0, 8, 8, 7.88554910258199e-09
0, 8, 9, 1.595471310622543e-08
0, 8, 10, 7.270279489546283e-09
0, 8, 11, 1.91959204087766e-09
0, 8, 12, 3.759448929940845e-08
0, 8, 13, 1.914653147139234e-08
0, 8, 14, 1.269399696468554e-08
0, 8, 15, 2.871749238408938e-08
0, 8, 16, 1.820409956110325e-08
0, 8, 17, 2.247656816223298e-08
0, 8, 18, 3.80928284471338e-08
0, 8, 19, 2.718935654399957e-08
0, 8, 20, 9.548476676002338e-09
0, 8, 21, 2.709272983736355e-08
0, 8, 22, 1.527557280667224e-08
0, 8, 23, 4.75311567882386e-09
0, 8, 24, 9.297724368195759e-09
0, 8, 25, 1.276399785865578e-08
0, 8, 26, 1.083535750012743e-08
0, 8, 27, 2.396587639452719e-08
0, 8, 28, 5.192628549366418e-09
0, 8, 29, 2.426767586882761e-08
0, 8, 30, 7.931524770299347e-09
0, 8, 31, 6.757419512837259e-09
0, 8, 32, 1.616474776255927e-08
0, 8, 33, 5.921849677292812e-09
0, 8, 34, 1.197247634365795e-08
0, 8, 35, 1.341841304736135e-08
0, 8, 36, 1.242525371480951e-08
0, 8, 37, 1.846973951558084e-08
0, 8, 38, 1.304425811810006e-08
0, 8, 39, 5.617039278149605e-09
0, 8, 40, 9.569570913470216e-09
0, 8, 41, 5.52579937362907e-09
0, 8, 42, 3.667539605345382e-09
0, 8, 43, 2.674130783475448e-08
0, 8, 44, 7.306989235900119e-09
0, 8, 45, 4.552775934030251e-09
0, 8, 46, 2.302860302449972e-08
0, 8, 47, 9.454613092430009e-09
0, 8, 48, 9.928002420167559e-09
0, 8, 49, 3.277952842495324e-08
0, 9, 0, 1.864016141439606e-08
0, 9, 1, 3.25105951048954e-08
0, 9, 2, 2.160973089360141e-08
0, 9, 3, 1.187192744112053e-08
0, 9, 4, 2.550180511207145e-08
0, 9, 5, 9.943869061501687e-10
0, 9, 6, 2.252579633932328e-08
0, 9, 7, 2.021785228123463e-08
0, 9, 8, 9.408473111705007e-09
0, 9, 9, 4.366453865145559e-09
0, 9, 10, 1.244372160869034e-08
0, 9, 11, 2.693487388683025e-08
0, 9, 12, 1.304498464804738e-08
0, 9, 13, 1.23446231015123e-08
0, 9, 14, 2.186242475943345e-08
0, 9, 15, 5.800698144042826e-09
0, 9, 16, 7.034520077553452e-09
0, 9, 17, 3.373854529087339e-09
0, 9, 18, 7.055620088181058e-09
0, 9, 19, 1.707591934518859e-08
0, 9, 20, 7.375280830501652e-09
0, 9, 21, 1.216662592895545e-08
0, 9, 22, 2.996635473095921e-08
0, 9, 23, 4.583678325786877e-09
0, 9, 24, 1.428678508830217e-08
0, 9, 25, 2.121845099622988e-08
0, 9, 26, 1.270509208950443e-08
0, 9, 27, 2.107882046686882e-08
0, 9, 28, 5.628681076785824e-09
0, 9, 29, 4.218936755506775e-09
0, 9, 30, 2.290670408910955e-08
0, 9, 31, 6.812576280879057e-09
0, 9, 32, 7.331358631290641e-09
0, 9, 33, 7.160148918217146e-09
0, 9, 34, 9.459831140645747e-09
0, 9, 35, 7.472091390070545e-09
0, 9, 36, 1.199396315598733e-08
0, 9, 37, 1.734457910629317e-08
0, 9, 38, 1.056135889854204e-08
0, 9, 39, 1.689595841014579e-08
0, 9, 40, 5.627244004102749e-09
0, 9, 41, 7.608360164113037e-09
0, 9, 42, 2.126959763870673e-08
0, 9, 43, 1.795016046912679e-08
0, 9, 44, 9.221633234801629e-09
0, 9, 45, 8.790770777977741e-09
0, 9, 46, 8.241380911044871e-09
0, 9, 47, 7.61836194129728e-09
0, 9, 48, 1.049640907524463e-08
0, 9, 49, 1.96690863596416e-09
0, 10, 0, 3.333152065465583e-08
0, 10, 1, 9.758029939632706e-10
0, 10, 2, 2.044001057299738e-08
0, 10, 3, 2.123537612419568e-08
0, 10, 4, 1.0144456830119e-08
0, 10, 5, 1.352618106409409e-08
0, 10, 6, 2.140411758944083e-08
0, 10, 7, 3.28901421653427e-08
0, 10, 8, 7.180424699271271e-09
0, 10, 9, 1.335603716512423e-08
0, 10, 10, 9.689085089803484e-09
0, 10, 11, 1.128389914839545e-08
0, 10, 12, 2.086652273192158e-08
0, 10, 13, 5.732686325643499e-09
0, 10, 14, 6.293737531137822e-09
0, 10, 15, 2.591615988478679e-08
0, 10, 16, 3.347647137275089e-08
0, 10, 17, 2.750554450869913e-08
0, 10, 18, 6.267503405155139e-09
0, 10, 19, 1.000627936065257e-08
0, 10, 20, 5.72234792883819e-09
0, 10, 21, 1.136304739191019e-08
0, 10, 22, 7.940365698289042e-09
0, 10, 23, 1.746879085828823e-08
0, 10, 24, 2.737164805921566e-08
0, 10, 25, 1.933385185282077e-08
0, 10, 26, 1.444941499784136e-08
0, 10, 27, 2.52005545320344e-08
0, 10, 28, 1.847409514255105e-08
0, 10, 29, 8.44954151091315e-09
0, 10, 30, 1.913488034688271e-08
0, 10, 31, 1.621854295308367e-08
0, 10, 32, 1.715632791388089e-08
0, 10, 33, 8.598943779247747e-09
0, 10, 34, 1.275254302157691e-08
0, 10, 35, 2.23931575504821e-08
0, 10, 36, 1.652235148696946e-08
0, 10, 37, 2.574794244480927e-08
0, 10, 38, 1.014954120748257e-09
0, 10, 39, 1.251791292844473e-08
0, 10, 40, 9.855090077337536e-09
0, 10, 41, 7.979038763039625e-09
0, 10, 42, 1.454260178945788e-08
0, 10, 43, 1.484212042157651e-08
0, 10, 44, 1.851731923352418e-08
0, 10, 45, 2.670871879217884e-08
0, 10, 46, 9.697162184352237e-09
0, 10, 47, 1.739182131643702e-08
0, 10, 48, 1.637236657359153e-08
0, 10, 49, 6.094260651678951e-09
0, 11, 0, 1.572682606365561e-08
0, 11, 1, 6.885254588695489e-10
0, 11, 2, 1.279086703220855e-08
0, 11, 3, 2.235407592365846e-08
0, 11, 4, 1.707832630870598e-08
0, 11, 5, 1.265640925396383e-08
0, 11, 6, 4.983495394128568e-09
0, 11, 7, 5.147707149433245e-09
0, 11, 8, 2.080707162122053e-08
0, 11, 9, 9.982953130815986e-09
0, 11, 10, 3.405399340294935e-08
0, 11, 11, 1.151936590559899e-08
0, 11, 12, 2.374896723722486e-08
0, 11, 13, 1.040458919021603e-08
0, 11, 14, 4.192104885447634e-09
0, 11, 15, 1.40233149537039e-08
0, 11, 16, 5.379487522105819e-09
0, 11, 17, 1.906320257205607e-08
0, 11, 18, 1.705655883199597e-08
0, 11, 19, 5.947468295630642e-09
0, 11, 20, 3.012756621956214e-08
0, 11, 21, 1.147088379838124e-08
0, 11, 22, 2.781026431364353e-08
0, 11, 23, 7.076669916727951e-09
0, 11, 24, 3.700620032631718e-09
0, 11, 25, 1.717422115632417e-08
0, 11, 26, 2.505303697830641e-08
0, 11, 27, 9.747364693168947e-09
0, 11, 28, 1.730979093395035e-08
0, 11, 29, 1.94949372200881e-08
0, 11, 30, 6.56842358282006e-09
0, 11, 31, 8.446069621470542e-09
0, 11, 32, 1.149557427027048e-08
0, 11, 33, 1.495322088373996e-08
0, 11, 34, 1.937032045873366e-08
0, 11, 35, 1.625949863637288e-08
0, 11, 36, 2.214809313727528e-08
0, 11, 37, 4.260123809274319e-09
0, 11, 38, 9.571518688744618e-09
0, 11, 39, 1.705642382887618e-08
0, 11, 40, 2.742985572012913e-08
0, 11, 41, 8.526304107192573e-09
0, 11, 42, 1.953605632820654e-08
0, 11, 43, 2.31071357603696e-08
0, 11, 44, 1.87008382113163e-08
0, 11, 45, 1.052372056165041e-08
0, 11, 46, 2.178880897929503e-08
0, 11, 47, 1.627789458780171e-08
0, 11, 48, 1.439591557073072e-08
0, 11, 49, 9.414928392459387e-09
0, 12, 0, 1.321086173788899e-08
0, 12, 1, 3.36329435413063e-08
0, 12, 2, 1.601304511211765e-08
0, 12, 3, 2.41007036549945e-08
0, 12, 4, 1.000430494002558e-08
0, 12, 5, 1.255675385891664e-08
0, 12, 6, 8.34297342322543e-09
0, 12, 7, 2.46757796418251e-08
0, 12, 8, 1.265952853657382e-08
0, 12, 9, 1.683917538741753e-08
0, 12, 10, 6.21273743561801e-09
0, 12, 11, 2.341759852697578e-08
0, 12, 12, 3.016284821910631e-08
0, 12, 13, 8.930859607403363e-09
0, 12, 14, 7.999805262670634e-09
0, 12, 15, 1.682884409603957e-08
0, 12, 16, 1.688697004453843e-08
0, 12, 17, 2.290962974882405e-08
0, 12, 18, 2.684139843722733e-08
0, 12, 19, 1.65578715183301e-08
0, 12, 20, 2.994634229480653e-08
0, 12, 21, 2.734182480423897e-08
0, 12, 22, 1.957331008384244e-08
0, 12, 23, 2.087256234517554e-08
0, 12, 24, 1.55492543285618e-08
0, 12, 25, 9.379980348001027e-09
0, 12, 26, 1.821530837275986e-08
0, 12, 27, 2.042965263626684e-08
0, 12, 28, 1.24850627614137e-08
0, 12, 29, 9.324136129862381e-09
0, 12, 30, 9.832928249409179e-09
0, 12, 31, 2.234337159734423e-08
0, 12, 32, 1.626925083542119e-08
0, 12, 33, 2.979199464903104e-08
0, 12, 34, 4.434770328742843e-09
0, 12, 35, 6.077215886080012e-08
0, 12, 36, 1.25883881096911e-08
0, 12, 37, 3.065260489876209e-09
0, 12, 38, 1.222135725953422e-08
0, 12, 39, 1.245566139118637e-08
0, 12, 40, 2.49873206570328e-08
0, 12, 41, 1.55801149759327e-08
0, 12, 42, 1.226085721839354e-08
0, 12, 43, 1.570746555046298e-08
0, 12, 44, 1.379157144043575e-08
0, 12, 45, 3.218393018755705e-08
0, 12, 46, 3.048807206695869e-09
0, 12, 47, 9.101506215358768e-09
0, 12, 48, 0
0, 12, 49, 1.210831790388056e-08
0, 13, 0, 9.32680688237042e-09
0, 13, 1, 3.090108435799266e-08
0, 13, 2, 1.466113719317264e-08
0, 13, 3, 6.807536312436469e-09
0, 13, 4, 1.623084244783968e-08
0, 13, 5, 1.501354063293547e-08
0, 13, 6, 7.030402038310513e-09
0, 13, 7, 1.207250921453351e-08
0, 13, 8, 2.654556574555045e-08
0, 13, 9, 4.041971646273623e-09
0, 13, 10, 1.616370326473771e-08
0, 13, 11, 2.231183060530384e-08
0, 13, 12, 1.690257356301572e-08
0, 13, 13, 2.70921596268181e-08
0, 13, 14, 2.698781997878541e-08
0, 13, 15, 7.904997545438164e-09
0, 13, 16, 1.053975395848283e-08
0, 13, 17, 1.18304521734558e-08
0, 13, 18, 1.927887183228449e-08
0, 13, 19, 1.66222253739079e-08
0, 13, 20, 2.240037666467742e-08
0, 13, 21, 3.772527534806613e-08
0, 13, 22, 1.418909523209777e-08
0, 13, 23, 1.131449423041886e-08
0, 13, 24, 1.611251221333987e-08
0, 13, 25, 1.705976693244793e-08
0, 13, 26, 3.992731478774658e-08
0, 13, 27, 1.835974750008518e-08
0, 13, 28, 3.680721150089994e-08
0, 13, 29, 2.568572377015244e-08
0, 13, 30, 2.322648740005206e-08
0, 13, 31, 1.500742463633742e-08
0, 13, 32, 1.607045696516707e-08
0, 13, 33, 1.320702303075905e-08
0, 13, 34, 1.490675494153493e-08
0, 13, 35, 8.129588557892475e-09
0, 13, 36, 3.895836098166683e-09
0, 13, 37, 3.035537154971735e-09
0, 13, 38, 8.76076988731711e-09
0, 13, 39, 8.174077414935255e-09
0, 13, 40, 2.137140953095695e-08
0, 13, 41, 1.581658715110734e-08
0, 13, 42, 2.657460562716096e-08
0, 13, 43, 2.471773896672858e-08
0, 13, 44, 1.07103224067373e-08
0, 13, 45, 6.448741984854678e-09
0, 13, 46, 2.442563262761155e-09
0, 13, 47, 1.844590369337595e-09
0, 13, 48, 8.612063950863558e-09
0, 13, 49, 3.942543180812663e-09
0, 14, 0, 1.575678965082261e-08
0, 14, 1, 1.489549283917313e-08
0, 14, 2, 2.297401024975443e-08
0, 14, 3, 9.099082376451406e-09
0, 14, 4, 9.527751920757055e-09
0, 14, 5, 6.093809012952534e-09
0, 14, 6, 4.873596193277763e-09
0, 14, 7, 1.606023936062684e-08
0, 14, 8, 7.776991495234142e-09
0, 14, 9, 2.268786225556596e-08
0, 14, 10, 1.139141936334909e-08
0, 14, 11, 2.200039794786335e-08
0, 14, 12, 2.700616619222274e-08
0, 14, 13, 1.404247829128735e-08
0, 14, 14, 1.260180404472067e-08
0, 14, 15, 5.767004651602292e-09
0, 14, 16, 6.103236582788441e-09
0, 14, 17, 2.072437155220541e-08
0, 14, 18, 3.714247043262731e-08
0, 14, 19, 2.737901105831497e-08
0, 14, 20, 2.237874063837353e-08
0, 14, 21, 1.406160254902034e-08
0, 14, 22, 1.460332832436961e-08
0, 14, 23, 2.51184726351994e-08
0, 14, 24, 2.019516642803865e-08
0, 14, 25, 2.322198611182102e-08
0, 14, 26, 1.470059718400307e-08
0, 14, 27, 3.79478173329062e-08
0, 14, 28, 1.007540006980889e-08
0, 14, 29, 8.131632256436205e-09
0, 14, 30, 1.663878279600794e-08
0, 14, 31, 6.750506376107523e-09
0, 14, 32, 1.944297522982197e-08
0, 14, 33, 1.702924201651967e-08
0, 14, 34, 2.0366261566096e-08
0, 14, 35, 2.142046895414751e-08
0, 14, 36, 1.715624442510943e-08
0, 14, 37, 1.555208228865013e-08
0, 14, 38, 9.312030258001869e-09
0, 14, 39, 1.915959835230296e-08
0, 14, 40, 2.5645677581565e-08
0, 14, 41, 1.058435650236333e-08
0, 14, 42, 3.787155122836339e-08
0, 14, 43, 8.933566775226609e-09
0, 14, 44, 7.201852003646536e-09
0, 14, 45, 2.729313131055733e-08
0, 14, 46, 1.511826752675915e-08
0, 14, 47, 8.668546769285967e-09
0, 14, 48, 4.863083269412982e-09
0, 14, 49, 6.319048839742436e-09
0, 15, 0, 1.933030446821249e-08
0, 15, 1, 1.120721027092486e-08
0, 15, 2, 1.147728578843044e-08
0, 15, 3, 7.310110294866945e-09
0, 15, 4, 4.477601400765252e-09
0, 15, 5, 2.510448382508912e-08
0, 15, 6, 2.606127580406792e-08
0, 15, 7, 2.488792638644099e-08
0, 15, 8, 2.320657976895291e-08
0, 15, 9, 8.814307506099794e-09
0, 15, 10, 1.668994009662583e-08
0, 15, 11, 1.786765402300716e-08
0, 15, 12, 1.622738921014388e-08
0, 15, 13, 3.429796890941361e-08
0, 15, 14, 2.618624073136289e-08
0, 15, 15, 2.088803618960355e-08
0, 15, 16, 2.543028676527115e-09
0, 15, 17, 1.9450938637533e-08
0, 15, 18, 1.737427091086374e-08
0, 15, 19, 1.628233015082969e-08
0, 15, 20, 2.44640609992075e-08
0, 15, 21, 2.776032559381747e-08
0, 15, 22, 1.866958498908389e-08
0, 15, 23, 1.177956310272066e-08
0, 15, 24, 2.050606262571364e-08
0, 15, 25, 1.054694109825505e-08
0, 15, 26, 1.939965343922267e-08
0, 15, 27, 2.793248476962162e-08
0, 15, 28, 1.963880436051113e-08
0, 15, 29, 2.086756900609998e-08
0, 15, 30, 2.045990576959866e-08
0, 15, 31, 1.165437257810709e-08
0, 15, 32, 1.011924499749739e-08
0, 15, 33, 1.007141658959654e-08
0, 15, 34, 1.852310305139326e-08
0, 15, 35, 1.029452079137627e-08
0, 15, 36, 1.211890943153549e-08
0, 15, 37, 3.28547642425292e-08
0, 15, 38, 6.75418787565718e-09
0, 15, 39, 2.219235639699946e-08
0, 15, 40, 2.091056217068399e-08
0, 15, 41, 2.000858145834172e-08
0, 15, 42, 1.859053178066006e-08
0, 15, 43, 1.433130591976806e-08
0, 15, 44, 9.41906641571677e-09
0, 15, 45, 1.959708662013782e-08
0, 15, 46, 9.459726335592222e-09
0, 15, 47, 1.59748196892906e-08
0, 15, 48, 6.865835011637955e-09
0, 15, 49, 1.675529759381789e-08
0, 16, 0, 2.888374694975937e-08
0, 16, 1, 1.431655238803842e-08
0, 16, 2, 3.428413108963468e-09
0, 16, 3, 9.39584765546897e-09
0, 16, 4, 2.19170068760377e-08
0, 16, 5, 2.425445799758563e-08
0, 16, 6, 1.780640168647096e-08
0, 16, 7, 3.09795069597385e-08
0, 16, 8, 6.821339049167818e-09
0, 16, 9, 1.242640923493354e-08
0, 16, 10, 6.019524434464074e-09
0, 16, 11, 2.660206810389809e-08
0, 16, 12, 1.964822615718731e-08
0, 16, 13, 1.996930976133626e-08
0, 16, 14, 9.810482204386517e-09
0, 16, 15, 1.129372595443101e-08
0, 16, 16, 2.007559984917862e-08
0, 16, 17, 2.167204549152757e-08
0, 16, 18, 1.170088381741152e-08
0, 16, 19, 2.732971360330794e-08
0, 16, 20, 1.484400868889679e-08
0, 16, 21, 1.562670703947333e-08
0, 16, 22, 3.225333955469978e-08
0, 16, 23, 9.75079217369057e-09
0, 16, 24, 2.727803938284978e-08
0, 16, 25, 3.352220545593809e-08
0, 16, 26, 2.786759090156465e-08
0, 16, 27, 2.082546401993568e-08
0, 16, 28, 2.412122235284642e-08
0, 16, 29, 5.214879195136746e-08
0, 16, 30, 2.777422913879946e-08
0, 16, 31, 2.721071368227967e-08
0, 16, 32, 1.560166573710831e-08
0, 16, 33, 1.838069429993539e-08
0, 16, 34, 1.481178468765165e-08
0, 16, 35, 9.991414806620469e-09
0, 16, 36, 2.835473900120178e-08
0, 16, 37, 1.407072414139066e-08
0, 16, 38, 7.578252692042042e-09
0, 16, 39, 2.408543053888934e-08
0, 16, 40, 1.085983569737436e-08
0, 16, 41, 1.290317630520121e-08
0, 16, 42, 1.212737732458891e-08
0, 16, 43, 1.003042449099212e-08
0, 16, 44, 3.952927940531481e-08
0, 16, 45, 1.249185910268125e-08
0, 16, 46, 6.222382165077534e-09
0, 16, 47, 2.4882462312803e-08
0, 16, 48, 1.252116632599609e-08
0, 16, 49, 5.652364354347128e-09
0, 17, 0, 1.655786086018907e-08
0, 17, 1, 1.477219235823668e-08
0, 17, 2, 6.435979749142007e-09
0, 17, 3, 2.791148978609215e-10
0, 17, 4, 1.72322831559768e-08
0, 17, 5, 2.357755235493642e-08
0, 17, 6, 1.549549288881735e-08
0, 17, 7, 1.221920786775854e-08
0, 17, 8, 3.331982156851154e-08
0, 17, 9, 1.449869113656632e-08
0, 17, 10, 2.164953727401553e-08
0, 17, 11, 1.661594750679285e-09
0, 17, 12, 2.089552886275214e-08
0, 17, 13, 8.827739428340919e-09
0, 17, 14, 2.059189441183662e-08
0, 17, 15, 6.659624851579338e-09
0, 17, 16, 1.399909699273394e-08
0, 17, 17, 1.106357316871254e-08
0, 17, 18, 2.078027527829818e-08
0, 17, 19, 2.195922910175341e-08
0, 17, 20, 3.028222650414136e-08
0, 17, 21, 1.507728519811735e-08
0, 17, 22, 1.138271255030077e-08
0, 17, 23, 1.180495790009672e-08
0, 17, 24, 1.340788013948213e-08
0, 17, 25, 1.913079650250893e-08
0, 17, 26, 1.527491733099851e-08
0, 17, 27, 2.015366895591342e-08
0, 17, 28, 2.202661342209922e-08
0, 17, 29, 2.662029352507034e-08
0, 17, 30, 2.974931767596445e-08
0, 17, 31, 2.832711487599227e-08
0, 17, 32, 1.000414950880213e-08
0, 17, 33, 1.733842580620149e-08
0, 17, 34, 2.817746569405699e-08
0, 17, 35, 2.214781957832201e-08
0, 17, 36, 1.405339489224389e-08
0, 17, 37, 4.236449413497212e-08
0, 17, 38, 1.878024313839433e-08
0, 17, 39, 1.713996766739001e-08
0, 17, 40, 9.039497150808984e-09
0, 17, 41, 5.502830191517205e-09
0, 17, 42, 2.900232765057353e-08
0, 17, 43, 1.894517964728948e-08
0, 17, 44, 1.25103687409478e-08
0, 17, 45, 1.945935501623808e-08
0, 17, 46, 7.136836899235277e-09
0, 17, 47, 8.8982874402177e-09
0, 17, 48, 1.081812861514209e-08
0, 17, 49, 2.457654524334885e-08
0, 18, 0, 3.326454001140178e-09
0, 18, 1, 7.852591465962178e-09
0, 18, 2, 2.101210938576514e-08
0, 18, 3, 1.19852199276238e-08
0, 18, 4, 6.281675268837716e-08
0, 18, 5, 9.458040572951631e-09
0, 18, 6, 2.266983401000289e-08
0, 18, 7, 1.137640381898564e-08
0, 18, 8, 2.793717790439132e-08
0, 18, 9, 1.292422524556969e-08
0, 18, 10, 2.637132467953052e-08
0, 18, 11, 1.067262811460523e-08
0, 18, 12, 1.388066195318061e-08
0, 18, 13, 2.480672023352781e-08
0, 18, 14, 1.865838683556831e-08
0, 18, 15, 3.434458406559315e-08
0, 18, 16, 1.873863020307454e-08
0, 18, 17, 4.566140798800689e-09
0, 18, 18, 9.164804026795537e-09
0, 18, 19, 1.727285692254554e-08
0, 18, 20, 1.777686087223174e-08
0, 18, 21, 1.036185803826584e-08
0, 18, 22, 1.219399692331535e-08
0, 18, 23, 9.463427375067113e-09
0, 18, 24, 3.498583467376193e-08
0, 18, 25, 1.467030052992868e-08
0, 18, 26, 1.712426289657287e-08
0, 18, 27, 1.831873208679724e-09
