# TOPAS Version: 3.7
# Parameter File: TestingDose1.txt
# Results for scorer TestingDose1
# Scored in component: Phantom
# X in 50 bins of 0.1 cm
# Y in 50 bins of 0.1 cm
# Z in 50 bins of 0.1 cm
# DoseToMedium ( Gy ) : Sum   
0, 0, 0, 6.083297421355383e-08
0, 0, 1, 8.638232174007499e-08
0, 0, 2, 6.840564026333595e-08
0, 0, 3, 1.25544801221622e-07
0, 0, 4, 7.655456357724688e-08
0, 0, 5, 9.208489615275539e-08
0, 0, 6, 7.998307438583652e-08
0, 0, 7, 7.665082790708766e-08
0, 0, 8, 1.091174581802079e-07
0, 0, 9, 5.548160331159124e-08
0, 0, 10, 1.074870539241601e-07
0, 0, 11, 1.096819630674872e-07
0, 0, 12, 1.15474911410729e-07
0, 0, 13, 1.389534531881509e-07
0, 0, 14, 8.392588313199667e-08
0, 0, 15, 6.113761230608361e-08
0, 0, 16, 7.288348768952346e-08
0, 0, 17, 9.013372448407608e-08
0, 0, 18, 8.488004965556684e-08
0, 0, 19, 1.395332418496764e-07
0, 0, 20, 8.731576883747039e-08
0, 0, 21, 9.841340187222158e-08
0, 0, 22, 1.523933406133438e-07
0, 0, 23, 8.955749564165671e-08
0, 0, 24, 1.152449016217361e-07
0, 0, 25, 9.551923341177826e-08
0, 0, 26, 9.832476166593551e-08
0, 0, 27, 7.176436866984659e-08
0, 0, 28, 1.090708323658873e-07
0, 0, 29, 6.928134865802349e-08
0, 0, 30, 1.028802927294237e-07
0, 0, 31, 1.163156824190992e-07
0, 0, 32, 1.077864340004453e-07
0, 0, 33, 8.179686261655661e-08
0, 0, 34, 7.512012700772175e-08
0, 0, 35, 7.653762423842636e-08
0, 0, 36, 1.042008435092612e-07
0, 0, 37, 7.990590233930561e-08
0, 0, 38, 9.640087483830939e-08
0, 0, 39, 7.037805715981449e-08
0, 0, 40, 8.867032619264137e-08
0, 0, 41, 8.841419685268193e-08
0, 0, 42, 8.404973783626701e-08
0, 0, 43, 5.163437677424554e-08
0, 0, 44, 3.799675951654535e-08
0, 0, 45, 4.959582966534981e-08
0, 0, 46, 5.06760500229575e-08
0, 0, 47, 5.801426539164822e-08
0, 0, 48, 6.107924122034092e-08
0, 0, 49, 9.217490060109412e-08
0, 1, 0, 6.817671049930141e-08
0, 1, 1, 9.091480990264245e-08
0, 1, 2, 1.099569857387905e-07
0, 1, 3, 1.115358756464957e-07
0, 1, 4, 5.382611334425746e-08
0, 1, 5, 1.534633327082702e-07
0, 1, 6, 8.213149271796283e-08
0, 1, 7, 1.294198455070728e-07
0, 1, 8, 8.149658725642439e-08
0, 1, 9, 8.599294432087845e-08
0, 1, 10, 1.444695811869678e-07
0, 1, 11, 1.074696669434161e-07
0, 1, 12, 1.65996127066137e-07
0, 1, 13, 1.749508697912461e-07
0, 1, 14, 9.941344103481242e-08
0, 1, 15, 1.197824133214453e-07
0, 1, 16, 9.305968973194467e-08
0, 1, 17, 1.21724511359389e-07
0, 1, 18, 1.255483681461556e-07
0, 1, 19, 1.079391012126507e-07
0, 1, 20, 9.970823100502457e-08
0, 1, 21, 1.382368708391368e-07
0, 1, 22, 1.199179848754284e-07
0, 1, 23, 2.093522795121316e-07
0, 1, 24, 7.86410581099517e-08
0, 1, 25, 9.38486905965874e-08
0, 1, 26, 1.109746108340914e-07
0, 1, 27, 9.477851392603043e-08
0, 1, 28, 1.059366638855863e-07
0, 1, 29, 1.1027810842279e-07
0, 1, 30, 7.534427481914463e-08
0, 1, 31, 1.048020408234152e-07
0, 1, 32, 7.114878997072083e-08
0, 1, 33, 1.04987520899158e-07
0, 1, 34, 8.059272005311868e-08
0, 1, 35, 1.262535391788333e-07
0, 1, 36, 1.273874516982687e-07
0, 1, 37, 8.111106097885568e-08
0, 1, 38, 9.062743089316427e-08
0, 1, 39, 7.653389388906362e-08
0, 1, 40, 1.066596837517864e-07
0, 1, 41, 6.959805887163384e-08
0, 1, 42, 9.855502725031329e-08
0, 1, 43, 8.245390858974133e-08
0, 1, 44, 8.322956546180649e-08
0, 1, 45, 6.118564499502099e-08
0, 1, 46, 7.4143635231394e-08
0, 1, 47, 7.495728482354025e-08
0, 1, 48, 7.277000690919522e-08
0, 1, 49, 1.006319934049316e-07
0, 2, 0, 1.011213583979043e-07
0, 2, 1, 9.216542196099908e-08
0, 2, 2, 1.784095786661055e-07
0, 2, 3, 1.213406051192578e-07
0, 2, 4, 8.87392488380101e-08
0, 2, 5, 1.098406912092287e-07
0, 2, 6, 1.23002948271278e-07
0, 2, 7, 1.066688000150862e-07
0, 2, 8, 1.178462696316274e-07
0, 2, 9, 1.044535054006701e-07
0, 2, 10, 1.082413021435968e-07
0, 2, 11, 1.055535605587465e-07
0, 2, 12, 1.074568558578903e-07
0, 2, 13, 1.47917077697457e-07
0, 2, 14, 8.252157357446777e-08
0, 2, 15, 1.47414056073103e-07
0, 2, 16, 1.155862108248584e-07
0, 2, 17, 1.511009912746886e-07
0, 2, 18, 6.968127763684606e-08
0, 2, 19, 1.5737384728709e-07
0, 2, 20, 1.372233668917033e-07
0, 2, 21, 1.058663556818829e-07
0, 2, 22, 1.156170412741631e-07
0, 2, 23, 9.502011977247093e-08
0, 2, 24, 1.143683192594835e-07
0, 2, 25, 8.537156759302889e-08
0, 2, 26, 1.202284920509555e-07
0, 2, 27, 9.752631058290717e-08
0, 2, 28, 1.353020877559175e-07
0, 2, 29, 1.044509616576761e-07
0, 2, 30, 1.032940559753115e-07
0, 2, 31, 1.197151249243689e-07
0, 2, 32, 8.886754443437894e-08
0, 2, 33, 1.007056411594931e-07
0, 2, 34, 9.582505100524941e-08
0, 2, 35, 8.356351344218638e-08
0, 2, 36, 9.778109699709603e-08
0, 2, 37, 1.174430934725024e-07
0, 2, 38, 5.348655207626507e-08
0, 2, 39, 1.094948132163154e-07
0, 2, 40, 1.197643513251023e-07
0, 2, 41, 7.67864136719254e-08
0, 2, 42, 9.988240634584145e-08
0, 2, 43, 7.091751541565827e-08
0, 2, 44, 6.989441914129202e-08
0, 2, 45, 7.004845770097745e-08
0, 2, 46, 8.835716158728246e-08
0, 2, 47, 1.136745737539968e-07
0, 2, 48, 7.38273868705619e-08
0, 2, 49, 4.407411680062978e-08
0, 3, 0, 8.188047928570086e-08
0, 3, 1, 1.167022816161989e-07
0, 3, 2, 7.606765706213992e-08
0, 3, 3, 1.185821147942079e-07
0, 3, 4, 1.621479555069527e-07
0, 3, 5, 1.045861850457186e-07
0, 3, 6, 1.279112638030711e-07
0, 3, 7, 1.173077848193316e-07
0, 3, 8, 1.229209942721354e-07
0, 3, 9, 8.142207974515259e-08
0, 3, 10, 9.473763640244215e-08
0, 3, 11, 5.773080502535777e-08
0, 3, 12, 1.044837389940767e-07
0, 3, 13, 1.035600334375886e-07
0, 3, 14, 1.083047322936181e-07
0, 3, 15, 7.778259458746106e-08
0, 3, 16, 9.735930461829412e-08
0, 3, 17, 1.460676344322565e-07
0, 3, 18, 1.066273540573093e-07
0, 3, 19, 1.497350154977539e-07
0, 3, 20, 1.365318098578427e-07
0, 3, 21, 1.011489345614791e-07
0, 3, 22, 1.320131985949047e-07
0, 3, 23, 1.113123104801161e-07
0, 3, 24, 1.855583349197332e-07
0, 3, 25, 1.087775061137108e-07
0, 3, 26, 1.064688888163801e-07
0, 3, 27, 8.803774420584887e-08
0, 3, 28, 8.897966097265453e-08
0, 3, 29, 1.245948197947655e-07
0, 3, 30, 1.355738419306363e-07
0, 3, 31, 1.03460713773984e-07
0, 3, 32, 8.604914114584972e-08
0, 3, 33, 1.355351173515373e-07
0, 3, 34, 1.113392045226647e-07
0, 3, 35, 1.316471127665864e-07
0, 3, 36, 8.253704919525262e-08
0, 3, 37, 1.232244812854333e-07
0, 3, 38, 7.817301650447916e-08
0, 3, 39, 9.433809822212424e-08
0, 3, 40, 7.942309565578398e-08
0, 3, 41, 9.979464721254772e-08
0, 3, 42, 9.229253805642657e-08
0, 3, 43, 5.95319669116634e-08
0, 3, 44, 8.55233466268146e-08
0, 3, 45, 5.702664651607847e-08
0, 3, 46, 6.937697349940208e-08
0, 3, 47, 7.439362548211648e-08
0, 3, 48, 6.014027320588866e-08
0, 3, 49, 7.390946166196954e-08
0, 4, 0, 1.23966827914046e-07
0, 4, 1, 7.578544369835072e-08
0, 4, 2, 9.664468336723075e-08
0, 4, 3, 1.597909857764535e-07
0, 4, 4, 1.153518098817585e-07
0, 4, 5, 1.143220131893941e-07
0, 4, 6, 1.876343560525129e-07
0, 4, 7, 1.648043905788654e-07
0, 4, 8, 8.971267106971936e-08
0, 4, 9, 9.652569588070037e-08
0, 4, 10, 9.729267702596189e-08
0, 4, 11, 1.618369509515105e-07
0, 4, 12, 1.079468674447526e-07
0, 4, 13, 1.092986039452626e-07
0, 4, 14, 1.309783641545437e-07
0, 4, 15, 1.053119405014513e-07
0, 4, 16, 1.415072858890198e-07
0, 4, 17, 1.187514513389942e-07
0, 4, 18, 1.481646023648864e-07
0, 4, 19, 1.054732123861868e-07
0, 4, 20, 1.171807539890324e-07
0, 4, 21, 1.11198772856369e-07
0, 4, 22, 1.314551809628028e-07
0, 4, 23, 8.263965156629638e-08
0, 4, 24, 1.260065403130284e-07
0, 4, 25, 1.215484815020318e-07
0, 4, 26, 1.542876333360255e-07
0, 4, 27, 1.280063912645346e-07
0, 4, 28, 1.073944631002632e-07
0, 4, 29, 1.179071489332273e-07
0, 4, 30, 1.266789411147329e-07
0, 4, 31, 1.179264259576485e-07
0, 4, 32, 1.053577705079078e-07
0, 4, 33, 6.937013807828407e-08
0, 4, 34, 1.348502394193929e-07
0, 4, 35, 1.261451387790657e-07
0, 4, 36, 9.202108230965678e-08
0, 4, 37, 8.844256882412083e-08
0, 4, 38, 9.414993940026761e-08
0, 4, 39, 1.353553926719542e-07
0, 4, 40, 1.142026206935043e-07
0, 4, 41, 6.868973656537491e-08
0, 4, 42, 1.700484233424504e-07
0, 4, 43, 7.677368074610058e-08
0, 4, 44, 9.210201312725985e-08
0, 4, 45, 1.022615947476879e-07
0, 4, 46, 8.444852284128501e-08
0, 4, 47, 9.026722125327069e-08
0, 4, 48, 6.699065835391593e-08
0, 4, 49, 8.065484280450619e-08
0, 5, 0, 1.100383428820351e-07
0, 5, 1, 9.797356170793137e-08
0, 5, 2, 1.219243301875395e-07
0, 5, 3, 8.777752213973145e-08
0, 5, 4, 1.151260420328981e-07
0, 5, 5, 1.019267656943157e-07
0, 5, 6, 1.294334310841805e-07
0, 5, 7, 8.491186065384682e-08
0, 5, 8, 1.55698870685228e-07
0, 5, 9, 1.418335244807167e-07
0, 5, 10, 1.769468553902698e-07
0, 5, 11, 1.094472494855836e-07
0, 5, 12, 1.280337613707161e-07
0, 5, 13, 1.250669043884045e-07
0, 5, 14, 1.357083192488062e-07
0, 5, 15, 1.117538062089807e-07
0, 5, 16, 1.723060023550715e-07
0, 5, 17, 1.695761966402642e-07
0, 5, 18, 1.7296373755471e-07
0, 5, 19, 1.608962634236377e-07
0, 5, 20, 1.146241217497845e-07
0, 5, 21, 1.398002780206298e-07
0, 5, 22, 1.311387052282953e-07
0, 5, 23, 1.491122816332791e-07
0, 5, 24, 1.207649376055997e-07
0, 5, 25, 1.897543455697814e-07
0, 5, 26, 1.323076475046037e-07
0, 5, 27, 9.72429035073219e-08
0, 5, 28, 1.422087478886169e-07
0, 5, 29, 1.153426865130314e-07
0, 5, 30, 6.813413477857466e-08
0, 5, 31, 1.578165296223233e-07
0, 5, 32, 1.853057653988799e-07
0, 5, 33, 1.573609580418633e-07
0, 5, 34, 9.490970143133381e-08
0, 5, 35, 1.162539717824984e-07
0, 5, 36, 1.202659092314207e-07
0, 5, 37, 1.152044433183619e-07
0, 5, 38, 1.141040897323364e-07
0, 5, 39, 1.004113201474865e-07
0, 5, 40, 1.1617655104601e-07
0, 5, 41, 1.290783160357023e-07
0, 5, 42, 7.363277632066456e-08
0, 5, 43, 1.127889959207096e-07
0, 5, 44, 1.03583964516929e-07
0, 5, 45, 8.7166817763773e-08
0, 5, 46, 1.019059112650211e-07
0, 5, 47, 1.123911346212481e-07
0, 5, 48, 8.43104857040089e-08
0, 5, 49, 9.171569104182709e-08
0, 6, 0, 1.003244847197493e-07
0, 6, 1, 8.149763885967332e-08
0, 6, 2, 1.221846162025031e-07
0, 6, 3, 1.348166733805556e-07
0, 6, 4, 1.029260729978887e-07
0, 6, 5, 1.281446060374947e-07
0, 6, 6, 8.78295480788438e-08
0, 6, 7, 1.658061279385947e-07
0, 6, 8, 1.632927251193905e-07
0, 6, 9, 1.347587499367364e-07
0, 6, 10, 1.655149759471897e-07
0, 6, 11, 1.203035679964159e-07
0, 6, 12, 1.130790536763016e-07
0, 6, 13, 1.064790069449373e-07
0, 6, 14, 1.390050954341859e-07
0, 6, 15, 9.959251912050604e-08
0, 6, 16, 1.312905340000725e-07
0, 6, 17, 1.625744090461012e-07
0, 6, 18, 1.409763257242957e-07
0, 6, 19, 1.134189275830977e-07
0, 6, 20, 1.444248880488885e-07
0, 6, 21, 1.319915128306093e-07
0, 6, 22, 1.179521404992556e-07
0, 6, 23, 1.224920396225571e-07
0, 6, 24, 1.634335689004729e-07
0, 6, 25, 1.655381254295207e-07
0, 6, 26, 1.415093180412441e-07
0, 6, 27, 1.087216077166886e-07
0, 6, 28, 1.456094622653836e-07
0, 6, 29, 1.077557598705425e-07
0, 6, 30, 1.510355929212892e-07
0, 6, 31, 1.18610650190476e-07
0, 6, 32, 1.34931866568877e-07
0, 6, 33, 1.265253644078257e-07
0, 6, 34, 1.225106700530887e-07
0, 6, 35, 8.877303514509549e-08
0, 6, 36, 1.134178901907035e-07
0, 6, 37, 1.624407559575047e-07
0, 6, 38, 1.400302238607765e-07
0, 6, 39, 1.026303877438295e-07
0, 6, 40, 8.96358613999837e-08
0, 6, 41, 1.180278559331782e-07
0, 6, 42, 1.034827619150747e-07
0, 6, 43, 1.007557628440736e-07
0, 6, 44, 9.152930857680985e-08
0, 6, 45, 6.551501030571671e-08
0, 6, 46, 9.888531593560401e-08
0, 6, 47, 9.461351169193222e-08
0, 6, 48, 8.004153784213486e-08
0, 6, 49, 6.724641110622542e-08
0, 7, 0, 1.336906905180513e-07
0, 7, 1, 1.279811101539963e-07
0, 7, 2, 1.337985935379038e-07
0, 7, 3, 1.123440256378672e-07
0, 7, 4, 1.037300947359654e-07
0, 7, 5, 1.276405470207465e-07
0, 7, 6, 1.497706421105249e-07
0, 7, 7, 1.256232309287952e-07
0, 7, 8, 1.272021421527825e-07
0, 7, 9, 1.734122747620859e-07
0, 7, 10, 1.440123611473609e-07
0, 7, 11, 1.762014534278933e-07
0, 7, 12, 1.233577648918072e-07
0, 7, 13, 1.727966463249686e-07
0, 7, 14, 1.40574883289446e-07
0, 7, 15, 1.809211340741967e-07
0, 7, 16, 1.756432368438254e-07
0, 7, 17, 1.941429275120754e-07
0, 7, 18, 1.778889640036141e-07
0, 7, 19, 1.336379824579126e-07
0, 7, 20, 1.369464825984323e-07
0, 7, 21, 1.56585258537234e-07
0, 7, 22, 1.550173749365058e-07
0, 7, 23, 1.212290925423076e-07
0, 7, 24, 1.27711373920647e-07
0, 7, 25, 1.130467026655424e-07
0, 7, 26, 1.41901921324461e-07
0, 7, 27, 1.48743040995214e-07
0, 7, 28, 1.724939835412442e-07
0, 7, 29, 1.767072888014809e-07
0, 7, 30, 1.223531853611348e-07
0, 7, 31, 1.349134777228755e-07
0, 7, 32, 1.181921476245407e-07
0, 7, 33, 1.025367666329657e-07
0, 7, 34, 1.268822131805791e-07
0, 7, 35, 1.277030037272198e-07
0, 7, 36, 7.72335297938298e-08
0, 7, 37, 1.207826159088654e-07
0, 7, 38, 1.096090329610888e-07
0, 7, 39, 7.417993685976398e-08
0, 7, 40, 9.315439086776678e-08
0, 7, 41, 9.765715702769739e-08
0, 7, 42, 9.517788157609175e-08
0, 7, 43, 1.123418442716684e-07
0, 7, 44, 7.513077093790343e-08
0, 7, 45, 1.063799004441535e-07
0, 7, 46, 1.27179760056606e-07
0, 7, 47, 1.235494124784964e-07
0, 7, 48, 1.017427067040444e-07
0, 7, 49, 5.903645572402638e-08
0, 8, 0, 1.187021254622778e-07
0, 8, 1, 9.032019221422161e-08
0, 8, 2, 9.735359896012596e-08
0, 8, 3, 1.078178186730838e-07
0, 8, 4, 1.563506657475955e-07
0, 8, 5, 1.469336581294556e-07
0, 8, 6, 1.470771024969508e-07
0, 8, 7, 1.523938948366776e-07
0, 8, 8, 1.958147919367548e-07
0, 8, 9, 1.452422395686881e-07
0, 8, 10, 1.688203639105268e-07
0, 8, 11, 1.0956818385921e-07
0, 8, 12, 1.601741672629942e-07
0, 8, 13, 8.879543855755401e-08
0, 8, 14, 1.403607825523068e-07
0, 8, 15, 9.959205016230044e-08
0, 8, 16, 1.293585967232502e-07
0, 8, 17, 1.682337114061738e-07
0, 8, 18, 1.74624688042968e-07
0, 8, 19, 1.674094249892732e-07
0, 8, 20, 1.846287034368288e-07
0, 8, 21, 1.617180913626726e-07
0, 8, 22, 1.471785111561985e-07
0, 8, 23, 1.810169578675414e-07
0, 8, 24, 1.872324162377481e-07
0, 8, 25, 1.618014522364319e-07
0, 8, 26, 1.352086655970197e-07
0, 8, 27, 1.342494755363077e-07
0, 8, 28, 1.53515784973024e-07
0, 8, 29, 1.040874977320527e-07
0, 8, 30, 1.314627695592208e-07
0, 8, 31, 1.085279137669204e-07
0, 8, 32, 1.502164508337955e-07
0, 8, 33, 1.797128703628914e-07
0, 8, 34, 8.487100444654061e-08
0, 8, 35, 1.350684044609807e-07
0, 8, 36, 1.517720704669046e-07
0, 8, 37, 1.264742763851245e-07
0, 8, 38, 1.50228501638594e-07
0, 8, 39, 1.802624751690018e-07
0, 8, 40, 9.032345360537875e-08
0, 8, 41, 1.519615864253865e-07
0, 8, 42, 8.097238435311738e-08
0, 8, 43, 9.546559454065573e-08
0, 8, 44, 1.566640435157751e-07
0, 8, 45, 7.674105262367448e-08
0, 8, 46, 1.067179766778281e-07
0, 8, 47, 1.002822642703904e-07
0, 8, 48, 1.391275503692668e-07
0, 8, 49, 1.010885952723584e-07
0, 9, 0, 1.128030220343135e-07
0, 9, 1, 9.289309588211836e-08
0, 9, 2, 1.147685111391183e-07
0, 9, 3, 1.715875299623804e-07
0, 9, 4, 1.28303014435005e-07
0, 9, 5, 1.326945806567892e-07
0, 9, 6, 1.692395699137705e-07
0, 9, 7, 1.348422244973335e-07
0, 9, 8, 1.261574738009585e-07
0, 9, 9, 1.428923610546917e-07
0, 9, 10, 1.599307779542869e-07
0, 9, 11, 1.406443317364392e-07
0, 9, 12, 1.366635586919074e-07
0, 9, 13, 1.485266238887561e-07
0, 9, 14, 1.991321738614715e-07
0, 9, 15, 1.491770547090709e-07
0, 9, 16, 1.510715037511545e-07
0, 9, 17, 1.116112571253325e-07
0, 9, 18, 1.477489917078856e-07
0, 9, 19, 1.342757940392403e-07
0, 9, 20, 1.549755097585148e-07
0, 9, 21, 1.515060574774907e-07
0, 9, 22, 1.546121097817377e-07
0, 9, 23, 1.296842810916132e-07
0, 9, 24, 1.909711073722065e-07
0, 9, 25, 1.495688337627143e-07
0, 9, 26, 1.95797966284772e-07
0, 9, 27, 2.485321033418586e-07
0, 9, 28, 1.521289334505127e-07
0, 9, 29, 1.17928919962651e-07
0, 9, 30, 1.131715876567796e-07
0, 9, 31, 1.354710263967718e-07
0, 9, 32, 1.894481300723783e-07
0, 9, 33, 1.479386497749147e-07
0, 9, 34, 1.345035371969061e-07
0, 9, 35, 1.520132428822762e-07
0, 9, 36, 1.659671653442274e-07
0, 9, 37, 1.238095279632034e-07
0, 9, 38, 1.278145305150247e-07
0, 9, 39, 1.341854982683799e-07
0, 9, 40, 1.770380322341225e-07
0, 9, 41, 1.456454867820867e-07
0, 9, 42, 1.288074003014117e-07
0, 9, 43, 1.249711658601882e-07
0, 9, 44, 7.528608847451324e-08
0, 9, 45, 8.717140076441865e-08
0, 9, 46, 9.850543847278459e-08
0, 9, 47, 9.012543955577712e-08
0, 9, 48, 7.285119352218317e-08
0, 9, 49, 8.798725303904575e-08
0, 10, 0, 1.099390587455673e-07
0, 10, 1, 1.289378985802614e-07
0, 10, 2, 1.357696817194665e-07
0, 10, 3, 1.176614361497741e-07
0, 10, 4, 1.824433724095798e-07
0, 10, 5, 1.623120624572039e-07
0, 10, 6, 1.50713461266605e-07
0, 10, 7, 1.5006803266715e-07
0, 10, 8, 1.143641128464878e-07
0, 10, 9, 1.934561311145444e-07
0, 10, 10, 1.797941706627171e-07
0, 10, 11, 1.18914677216253e-07
0, 10, 12, 1.476759905472136e-07
0, 10, 13, 1.408370451372321e-07
0, 10, 14, 1.749626079572408e-07
0, 10, 15, 1.982749324724864e-07
0, 10, 16, 1.871072612402713e-07
0, 10, 17, 1.402510321213413e-07
0, 10, 18, 1.79998906446599e-07
0, 10, 19, 1.872647459322252e-07
0, 10, 20, 1.587953306625423e-07
0, 10, 21, 2.208776663792378e-07
0, 10, 22, 1.344746323184154e-07
0, 10, 23, 1.632136701346099e-07
0, 10, 24, 1.437867780396118e-07
0, 10, 25, 1.435560932350199e-07
0, 10, 26, 2.070238593887552e-07
0, 10, 27, 1.202777468733984e-07
0, 10, 28, 1.670384364160782e-07
0, 10, 29, 1.979791477424442e-07
0, 10, 30, 1.209607489727205e-07
0, 10, 31, 1.598174179662237e-07
0, 10, 32, 2.136293346666207e-07
0, 10, 33, 1.310694415224134e-07
0, 10, 34, 1.2964078166533e-07
0, 10, 35, 1.706439860527098e-07
0, 10, 36, 1.567781851008476e-07
0, 10, 37, 1.448408823989666e-07
0, 10, 38, 1.242266876033682e-07
0, 10, 39, 1.201024986130506e-07
0, 10, 40, 1.049387492457754e-07
0, 10, 41, 1.573593664261352e-07
0, 10, 42, 1.251870287433121e-07
0, 10, 43, 1.421965123427071e-07
0, 10, 44, 1.531784050712304e-07
0, 10, 45, 1.066385024728334e-07
0, 10, 46, 1.25658871752421e-07
0, 10, 47, 9.54013970044798e-08
0, 10, 48, 7.56169242777105e-08
0, 10, 49, 9.186756244616845e-08
0, 11, 0, 1.111684326815521e-07
0, 11, 1, 1.330776484564922e-07
0, 11, 2, 1.491488887950254e-07
0, 11, 3, 1.422647244453401e-07
0, 11, 4, 1.177974482402533e-07
0, 11, 5, 1.689051174480483e-07
0, 11, 6, 1.348996789829471e-07
0, 11, 7, 1.273018455094643e-07
0, 11, 8, 1.057036698171032e-07
0, 11, 9, 1.683357737647384e-07
0, 11, 10, 1.556055906348774e-07
0, 11, 11, 1.836886980299823e-07
0, 11, 12, 1.658306985063973e-07
0, 11, 13, 1.14116836869016e-07
0, 11, 14, 1.601209902446499e-07
0, 11, 15, 2.05316609935835e-07
0, 11, 16, 2.066152973156932e-07
0, 11, 17, 1.402313074549966e-07
0, 11, 18, 1.751302391994614e-07
0, 11, 19, 1.852424560411237e-07
0, 11, 20, 1.929360706753869e-07
0, 11, 21, 1.901448456465005e-07
0, 11, 22, 1.964030644785453e-07
0, 11, 23, 2.045074438683514e-07
0, 11, 24, 1.475516029358914e-07
0, 11, 25, 1.832921014965905e-07
0, 11, 26, 1.708003907197053e-07
0, 11, 27, 1.289554631966894e-07
0, 11, 28, 1.738623183200616e-07
0, 11, 29, 1.082924185880074e-07
0, 11, 30, 1.811034735510475e-07
0, 11, 31, 1.827885967031762e-07
0, 11, 32, 1.115525236627946e-07
0, 11, 33, 1.786394392411239e-07
0, 11, 34, 9.114096855000753e-08
0, 11, 35, 1.31684004145427e-07
0, 11, 36, 1.627073089593978e-07
0, 11, 37, 1.052052596151043e-07
0, 11, 38, 1.784526233450379e-07
0, 11, 39, 1.698936671346019e-07
0, 11, 40, 1.323821550158755e-07
0, 11, 41, 1.47104188386038e-07
0, 11, 42, 1.914339406994259e-07
0, 11, 43, 1.478365447837859e-07
0, 11, 44, 1.497904520419979e-07
0, 11, 45, 1.38613842182167e-07
0, 11, 46, 9.987218874130122e-08
0, 11, 47, 1.122359378769033e-07
0, 11, 48, 9.167497694306803e-08
0, 11, 49, 1.484365981241353e-07
0, 12, 0, 1.887035239178658e-07
0, 12, 1, 2.022501064402604e-07
0, 12, 2, 1.329497507640554e-07
0, 12, 3, 1.493169463628874e-07
0, 12, 4, 1.641218290160396e-07
0, 12, 5, 1.450452913331901e-07
0, 12, 6, 1.328674699152543e-07
0, 12, 7, 1.87680356589226e-07
0, 12, 8, 1.532712161633754e-07
0, 12, 9, 1.663900661696971e-07
0, 12, 10, 1.753598439790949e-07
0, 12, 11, 1.56531072548205e-07
0, 12, 12, 1.509556426526615e-07
0, 12, 13, 2.186333318832112e-07
0, 12, 14, 2.045601092959259e-07
0, 12, 15, 1.650060141855647e-07
0, 12, 16, 1.929977315739961e-07
0, 12, 17, 1.866948338147267e-07
0, 12, 18, 1.959913902283006e-07
0, 12, 19, 1.649391805358391e-07
0, 12, 20, 1.600458432449159e-07
0, 12, 21, 1.220357717102161e-07
0, 12, 22, 1.871900821015515e-07
0, 12, 23, 1.700966549833538e-07
0, 12, 24, 1.57333531092263e-07
0, 12, 25, 1.814278789424861e-07
0, 12, 26, 1.779737317519903e-07
0, 12, 27, 1.761859778071084e-07
0, 12, 28, 1.618417115878401e-07
0, 12, 29, 1.764326498232549e-07
0, 12, 30, 1.87946213259238e-07
0, 12, 31, 1.623704406483739e-07
0, 12, 32, 1.279392023434411e-07
0, 12, 33, 2.085225219161657e-07
0, 12, 34, 1.437761483202848e-07
0, 12, 35, 1.349409615158947e-07
0, 12, 36, 1.575058661273943e-07
0, 12, 37, 1.711651833602446e-07
0, 12, 38, 1.039560402205097e-07
0, 12, 39, 1.766791939417089e-07
0, 12, 40, 1.143366219480413e-07
0, 12, 41, 1.045973618829521e-07
0, 12, 42, 1.016398769593252e-07
0, 12, 43, 1.058670093811998e-07
0, 12, 44, 1.201260175776042e-07
0, 12, 45, 1.689604545163093e-07
0, 12, 46, 1.071473221259112e-07
0, 12, 47, 7.582433170227887e-08
0, 12, 48, 1.054419982438048e-07
0, 12, 49, 1.069746033977026e-07
0, 13, 0, 1.321678269050608e-07
0, 13, 1, 1.357655605715991e-07
0, 13, 2, 1.19722201930017e-07
0, 13, 3, 1.940341576300852e-07
0, 13, 4, 1.697073628292856e-07
0, 13, 5, 2.050671241704549e-07
0, 13, 6, 2.053601662055371e-07
0, 13, 7, 1.773625228906894e-07
0, 13, 8, 1.009832928389187e-07
0, 13, 9, 2.238059266801429e-07
0, 13, 10, 1.673963367920805e-07
0, 13, 11, 1.802251290428103e-07
0, 13, 12, 1.388424095694063e-07
0, 13, 13, 1.682951165093982e-07
0, 13, 14, 1.869809125309985e-07
0, 13, 15, 1.281178043655018e-07
0, 13, 16, 2.353396695298215e-07
0, 13, 17, 1.444933133143422e-07
0, 13, 18, 1.86915869448967e-07
0, 13, 19, 1.86572719940159e-07
0, 13, 20, 1.531053328562848e-07
0, 13, 21, 1.496232613362736e-07
0, 13, 22, 2.028868664183392e-07
0, 13, 23, 1.599070884594767e-07
0, 13, 24, 1.794654167497356e-07
0, 13, 25, 1.44379356470381e-07
0, 13, 26, 1.675848153581683e-07
0, 13, 27, 2.094243569672471e-07
0, 13, 28, 2.423675198315323e-07
0, 13, 29, 1.307120811588902e-07
0, 13, 30, 1.289506172952315e-07
0, 13, 31, 1.901585164887365e-07
0, 13, 32, 1.806737515153145e-07
0, 13, 33, 1.232465081102418e-07
0, 13, 34, 1.520480594763285e-07
0, 13, 35, 1.48099402963453e-07
0, 13, 36, 1.494221777420535e-07
0, 13, 37, 1.458829075318135e-07
0, 13, 38, 1.271187954898778e-07
0, 13, 39, 1.048181417218075e-07
0, 13, 40, 1.74260236462942e-07
0, 13, 41, 1.376669018782195e-07
0, 13, 42, 1.61797956366172e-07
0, 13, 43, 8.77985613101373e-08
0, 13, 44, 9.623324359608887e-08
0, 13, 45, 1.347323603795303e-07
0, 13, 46, 1.02351606301454e-07
0, 13, 47, 1.090648424906249e-07
0, 13, 48, 1.35428351200062e-07
0, 13, 49, 1.263535267526095e-07
0, 14, 0, 1.237692117683764e-07
0, 14, 1, 1.261621065395957e-07
0, 14, 2, 1.778894755943838e-07
0, 14, 3, 1.190326912592354e-07
0, 14, 4, 1.428725227015093e-07
0, 14, 5, 1.639457707369729e-07
0, 14, 6, 1.788157675264301e-07
0, 14, 7, 2.067797311156028e-07
0, 14, 8, 2.18798206219617e-07
0, 14, 9, 1.750197640149054e-07
0, 14, 10, 1.478561415524382e-07
0, 14, 11, 1.976453916086029e-07
0, 14, 12, 2.047457741127801e-07
0, 14, 13, 1.330886902906059e-07
0, 14, 14, 1.365042265888405e-07
0, 14, 15, 1.988518363305047e-07
0, 14, 16, 2.07080603331633e-07
0, 14, 17, 1.418264190533591e-07
0, 14, 18, 1.946568914945601e-07
0, 14, 19, 1.68693262025954e-07
0, 14, 20, 2.09506595183484e-07
0, 14, 21, 2.116797475082421e-07
0, 14, 22, 1.639994025026681e-07
0, 14, 23, 2.032321901879186e-07
0, 14, 24, 1.335928487833371e-07
0, 14, 25, 2.208128790925912e-07
0, 14, 26, 1.75641659438952e-07
0, 14, 27, 2.029629797561938e-07
0, 14, 28, 1.50508029150842e-07
0, 14, 29, 1.508733049604416e-07
0, 14, 30, 1.827921920494191e-07
0, 14, 31, 1.475709154874494e-07
0, 14, 32, 1.482271727581974e-07
0, 14, 33, 1.566593539337191e-07
0, 14, 34, 1.882368394490186e-07
0, 14, 35, 1.607187556373901e-07
0, 14, 36, 1.65406532914858e-07
0, 14, 37, 1.690454780600703e-07
0, 14, 38, 1.330149785871981e-07
0, 14, 39, 1.462245933225859e-07
0, 14, 40, 1.681696915056818e-07
0, 14, 41, 1.308394388388479e-07
0, 14, 42, 1.294989147027081e-07
0, 14, 43, 1.612226441238818e-07
0, 14, 44, 1.311654500568693e-07
0, 14, 45, 1.096189379268253e-07
0, 14, 46, 1.138661644972672e-07
0, 14, 47, 1.425874529559223e-07
0, 14, 48, 1.044209838596544e-07
0, 14, 49, 7.053343153984315e-08
0, 15, 0, 1.389222177294869e-07
0, 15, 1, 1.388225285836597e-07
0, 15, 2, 1.720040927466471e-07
0, 15, 3, 1.498278265898989e-07
0, 15, 4, 1.664617599317353e-07
0, 15, 5, 1.947260841461684e-07
0, 15, 6, 1.341105928531761e-07
0, 15, 7, 1.588237523719727e-07
0, 15, 8, 2.035646957665449e-07
0, 15, 9, 1.635853976722501e-07
0, 15, 10, 1.37307011982557e-07
0, 15, 11, 1.683795147755518e-07
0, 15, 12, 2.123236413353879e-07
0, 15, 13, 1.538538043632798e-07
0, 15, 14, 1.589886551300879e-07
0, 15, 15, 2.350297165776283e-07
0, 15, 16, 1.965321416719235e-07
0, 15, 17, 2.231598585922256e-07
0, 15, 18, 2.112904411433192e-07
0, 15, 19, 1.909962890067618e-07
0, 15, 20, 2.249648645147317e-07
0, 15, 21, 2.018154106053771e-07
0, 15, 22, 2.067030351327048e-07
0, 15, 23, 1.985578279573019e-07
0, 15, 24, 2.05280386467166e-07
0, 15, 25, 2.431428640647937e-07
0, 15, 26, 1.971188794414047e-07
0, 15, 27, 1.35306251536349e-07
0, 15, 28, 2.288275737782897e-07
0, 15, 29, 1.677478138617516e-07
0, 15, 30, 2.627241713071271e-07
0, 15, 31, 1.726728413586898e-07
0, 15, 32, 2.228216970934227e-07
0, 15, 33, 2.434462089695444e-07
0, 15, 34, 2.342409572975157e-07
0, 15, 35, 1.768932094137199e-07
0, 15, 36, 1.57291466962306e-07
0, 15, 37, 1.336631072490491e-07
0, 15, 38, 1.37616780193639e-07
0, 15, 39, 1.924369570360795e-07
0, 15, 40, 1.751202205468871e-07
0, 15, 41, 1.60141141236636e-07
0, 15, 42, 1.869471617510499e-07
0, 15, 43, 2.086293022784957e-07
0, 15, 44, 9.112694243640362e-08
0, 15, 45, 1.041141075575069e-07
0, 15, 46, 1.228515458251422e-07
0, 15, 47, 1.353587180119575e-07
0, 15, 48, 1.08826746725299e-07
0, 15, 49, 7.675660640416027e-08
0, 16, 0, 2.193872319367074e-07
0, 16, 1, 1.570965082464681e-07
0, 16, 2, 1.90154651136254e-07
0, 16, 3, 1.114195100626603e-07
0, 16, 4, 1.164477154702581e-07
0, 16, 5, 1.728380851773181e-07
0, 16, 6, 1.453152975727789e-07
0, 16, 7, 1.636733344412278e-07
0, 16, 8, 1.790687775837796e-07
0, 16, 9, 1.963375950708723e-07
0, 16, 10, 2.027589829367571e-07
0, 16, 11, 1.865386423105519e-07
0, 16, 12, 2.338630764597838e-07
0, 16, 13, 2.380125749823492e-07
0, 16, 14, 2.448088594064757e-07
0, 16, 15, 2.437131172428053e-07
0, 16, 16, 1.660186512708606e-07
0, 16, 17, 1.950620998059094e-07
0, 16, 18, 2.273409904773871e-07
0, 16, 19, 2.248949186878235e-07
0, 16, 20, 2.115309456485193e-07
0, 16, 21, 1.943562892847694e-07
0, 16, 22, 2.205297988666644e-07
0, 16, 23, 1.490655989755396e-07
0, 16, 24, 2.170210251506433e-07
0, 16, 25, 1.538563338954191e-07
0, 16, 26, 2.170468889062249e-07
0, 16, 27, 2.271024470701377e-07
0, 16, 28, 1.758969432330559e-07
0, 16, 29, 1.497642898584672e-07
0, 16, 30, 1.807287191013529e-07
0, 16, 31, 1.858065985516077e-07
0, 16, 32, 1.803410043521581e-07
0, 16, 33, 1.551494364093742e-07
0, 16, 34, 1.652254582040769e-07
0, 16, 35, 1.392420045931431e-07
0, 16, 36, 1.925142925074397e-07
0, 16, 37, 1.212571731912249e-07
0, 16, 38, 1.481887323961928e-07
0, 16, 39, 2.147868229940286e-07
0, 16, 40, 1.627010846050325e-07
0, 16, 41, 1.387482342352087e-07
0, 16, 42, 1.195725900515754e-07
0, 16, 43, 1.240131126678534e-07
0, 16, 44, 1.480184295132858e-07
0, 16, 45, 1.165830738614204e-07
0, 16, 46, 1.030981522376351e-07
0, 16, 47, 9.232970654693418e-08
0, 16, 48, 1.593485023931862e-07
0, 16, 49, 1.168149807995178e-07
0, 17, 0, 1.667737308252981e-07
0, 17, 1, 1.301025349675911e-07
0, 17, 2, 1.659361430483841e-07
0, 17, 3, 1.867698387059136e-07
0, 17, 4, 1.574693300199215e-07
0, 17, 5, 2.170046542460113e-07
0, 17, 6, 1.509498446239377e-07
0, 17, 7, 1.884833551457632e-07
0, 17, 8, 2.217875021415239e-07
0, 17, 9, 2.149349427327252e-07
0, 17, 10, 2.336361433208367e-07
0, 17, 11, 2.193349359913555e-07
0, 17, 12, 1.66471053830719e-07
0, 17, 13, 1.552876085497701e-07
0, 17, 14, 2.135456753649123e-07
0, 17, 15, 2.172157849145151e-07
0, 17, 16, 1.965698288586282e-07
0, 17, 17, 2.640969398726156e-07
0, 17, 18, 2.15694498706398e-07
0, 17, 19, 2.044621538743741e-07
0, 17, 20, 2.273505543826104e-07
0, 17, 21, 1.396214912574578e-07
0, 17, 22, 1.826347073574652e-07
0, 17, 23, 1.959567299536502e-07
0, 17, 24, 2.630001461056963e-07
0, 17, 25, 1.891242789042735e-07
0, 17, 26, 1.654997561217897e-07
0, 17, 27, 1.881822981886216e-07
0, 17, 28, 2.328053909650407e-07
0, 17, 29, 1.771554991591984e-07
0, 17, 30, 1.983478483680301e-07
0, 17, 31, 1.525699957483084e-07
0, 17, 32, 1.56197401679492e-07
0, 17, 33, 1.665755036128758e-07
0, 17, 34, 2.147124718021587e-07
0, 17, 35, 1.794772401808586e-07
0, 17, 36, 1.696952551810682e-07
0, 17, 37, 1.425156312961917e-07
0, 17, 38, 1.761309960102153e-07
0, 17, 39, 1.576503052547196e-07
0, 17, 40, 1.367641573324363e-07
0, 17, 41, 1.857209497302392e-07
0, 17, 42, 1.628776971074331e-07
0, 17, 43, 1.080349463222774e-07
0, 17, 44, 1.697165998848504e-07
0, 17, 45, 1.386306820450045e-07
0, 17, 46, 1.26375354625452e-07
0, 17, 47, 1.498999040450144e-07
0, 17, 48, 9.875658690816635e-08
0, 17, 49, 1.026867906261941e-07
0, 18, 0, 1.504665334550737e-07
0, 18, 1, 1.699290095302786e-07
0, 18, 2, 2.050150555987784e-07
0, 18, 3, 1.669103113499659e-07
0, 18, 4, 1.488617868972142e-07
0, 18, 5, 1.53544974068609e-07
0, 18, 6, 1.904793691664963e-07
0, 18, 7, 1.886244405113757e-07
0, 18, 8, 2.13097408163776e-07
0, 18, 9, 1.97762147990943e-07
0, 18, 10, 2.219150587734475e-07
0, 18, 11, 1.530109443592664e-07
0, 18, 12, 2.179521061407286e-07
0, 18, 13, 2.376885817056973e-07
0, 18, 14, 2.217131935822181e-07
0, 18, 15, 2.060858719232783e-07
0, 18, 16, 2.043314850652678e-07
0, 18, 17, 1.812148155977411e-07
0, 18, 18, 2.012817361674024e-07
0, 18, 19, 1.724756657495163e-07
0, 18, 20, 1.942160707812945e-07
0, 18, 21, 1.835907283975757e-07
0, 18, 22, 1.864359404635252e-07
0, 18, 23, 2.103691372212779e-07
0, 18, 24, 2.211306195931684e-07
0, 18, 25, 1.600682111302376e-07
