# TOPAS Version: 3.7
# Parameter File: TestingDose7.txt
# Results for scorer TestingDose7
# Scored in component: Phantom
# X in 50 bins of 0.1 cm
# Y in 50 bins of 0.1 cm
# Z in 50 bins of 0.1 cm
# DoseToMedium ( Gy ) : Sum   
0, 0, 0, 1.781490510666117e-08
0, 0, 1, 3.88032495024504e-09
0, 0, 2, 6.785800810149567e-10
0, 0, 3, 1.765858037572343e-08
0, 0, 4, 3.853332319891933e-09
0, 0, 5, 9.017474766892519e-09
0, 0, 6, 6.205706615247664e-09
0, 0, 7, 8.038580467939482e-09
0, 0, 8, 3.994510056060108e-09
0, 0, 9, 1.281246997386631e-09
0, 0, 10, 6.045314915326117e-09
0, 0, 11, 1.001315386162105e-08
0, 0, 12, 5.723610918551003e-09
0, 0, 13, 2.041536495411833e-09
0, 0, 14, 1.175302744016449e-09
0, 0, 15, 9.341439621834979e-09
0, 0, 16, 2.855703451487557e-09
0, 0, 17, 4.006710518922318e-09
0, 0, 18, 3.544368132324394e-09
0, 0, 19, 6.770476179696061e-09
0, 0, 20, 1.72240055551498e-09
0, 0, 21, 0
0, 0, 22, 1.056621901085464e-08
0, 0, 23, 2.925619080329511e-09
0, 0, 24, 1.896325585448722e-08
0, 0, 25, 3.197883069461227e-09
0, 0, 26, 9.332231876157948e-09
0, 0, 27, 5.41067324277833e-09
0, 0, 28, 2.630841544615237e-09
0, 0, 29, 3.283405325404942e-09
0, 0, 30, 3.926551084276753e-09
0, 0, 31, 2.273419141829436e-08
0, 0, 32, 1.709075014844075e-08
0, 0, 33, 2.451708880357728e-08
0, 0, 34, 4.027422839669725e-09
0, 0, 35, 5.906488187434888e-09
0, 0, 36, 1.748339961693546e-08
0, 0, 37, 1.237358926431398e-08
0, 0, 38, 2.168114221490214e-08
0, 0, 39, 6.913202899028192e-09
0, 0, 40, 9.91937909589069e-09
0, 0, 41, 4.095010552873646e-09
0, 0, 42, 9.53487422350463e-09
0, 0, 43, 2.32497754382166e-09
0, 0, 44, 6.119801998494268e-09
0, 0, 45, 7.645494903840699e-09
0, 0, 46, 3.780912916084844e-09
0, 0, 47, 5.481234577331406e-09
0, 0, 48, 8.737507606326744e-09
0, 0, 49, 4.695011934785498e-09
0, 1, 0, 8.660635764101698e-09
0, 1, 1, 1.042683450691584e-08
0, 1, 2, 7.211838681797644e-09
0, 1, 3, 1.235220925543956e-09
0, 1, 4, 3.131084724827815e-08
0, 1, 5, 0
0, 1, 6, 1.314223307957718e-08
0, 1, 7, 2.633732343326756e-09
0, 1, 8, 1.442154040631749e-08
0, 1, 9, 1.080623857063756e-08
0, 1, 10, 2.203761395591641e-09
0, 1, 11, 3.907457468699249e-09
0, 1, 12, 4.206488046776258e-09
0, 1, 13, 6.408045649664018e-09
0, 1, 14, 4.819185939197723e-09
0, 1, 15, 1.05366551039765e-08
0, 1, 16, 2.644342877999861e-08
0, 1, 17, 1.366862178997508e-10
0, 1, 18, 1.234349689127612e-08
0, 1, 19, 1.223780898840232e-08
0, 1, 20, 1.352917333719006e-08
0, 1, 21, 8.797302442076216e-09
0, 1, 22, 2.767956353011414e-08
0, 1, 23, 6.327421253615739e-09
0, 1, 24, 1.688942496969048e-08
0, 1, 25, 1.761842938208247e-08
0, 1, 26, 1.444802499861453e-09
0, 1, 27, 1.248474745807471e-08
0, 1, 28, 1.279985539781592e-08
0, 1, 29, 5.506718192549442e-09
0, 1, 30, 1.011726258326462e-08
0, 1, 31, 1.948365735415791e-08
0, 1, 32, 2.271616672544496e-09
0, 1, 33, 1.995607235016905e-08
0, 1, 34, 3.392899117216075e-08
0, 1, 35, 2.553138811478561e-09
0, 1, 36, 1.191111564935454e-08
0, 1, 37, 1.497736157318741e-08
0, 1, 38, 1.03971489195942e-08
0, 1, 39, 4.718689883276284e-09
0, 1, 40, 6.134107444211168e-09
0, 1, 41, 6.496760018848136e-09
0, 1, 42, 1.275099226205612e-08
0, 1, 43, 1.84373982747843e-09
0, 1, 44, 1.078086508954357e-08
0, 1, 45, 1.393090087731252e-08
0, 1, 46, 7.247201949667215e-09
0, 1, 47, 3.145128246728746e-08
0, 1, 48, 4.245643392408738e-09
0, 1, 49, 1.535164634303143e-10
0, 2, 0, 3.622600885933025e-09
0, 2, 1, 1.277025063473047e-08
0, 2, 2, 1.714697539512144e-08
0, 2, 3, 0
0, 2, 4, 5.58012080986714e-09
0, 2, 5, 1.051216624858853e-08
0, 2, 6, 1.04807362788506e-08
0, 2, 7, 2.413698574343925e-08
0, 2, 8, 8.961746900126855e-09
0, 2, 9, 8.779658777768873e-09
0, 2, 10, 3.177199392467855e-09
0, 2, 11, 7.325705819738459e-09
0, 2, 12, 1.027440799106216e-08
0, 2, 13, 3.695237449363731e-09
0, 2, 14, 4.952855459094962e-09
0, 2, 15, 1.536487737041625e-08
0, 2, 16, 1.375823099891704e-08
0, 2, 17, 3.495927103358554e-09
0, 2, 18, 9.05423025443497e-09
0, 2, 19, 1.532580284901996e-08
0, 2, 20, 1.255936421529213e-08
0, 2, 21, 7.247297428847332e-09
0, 2, 22, 1.138498806341204e-08
0, 2, 23, 8.942215856677649e-09
0, 2, 24, 6.702606025754676e-09
0, 2, 25, 7.450730699076757e-09
0, 2, 26, 1.185713927043253e-08
0, 2, 27, 8.060324852010581e-09
0, 2, 28, 1.012107730957723e-08
0, 2, 29, 1.066863131171658e-08
0, 2, 30, 3.658979119691708e-09
0, 2, 31, 8.489863922989116e-09
0, 2, 32, 3.870359588376004e-09
0, 2, 33, 5.123268032036776e-09
0, 2, 34, 7.999559237248377e-09
0, 2, 35, 1.991775278042951e-08
0, 2, 36, 6.128306750952106e-09
0, 2, 37, 2.322700254353549e-08
0, 2, 38, 6.62090648972935e-09
0, 2, 39, 5.277771553124921e-09
0, 2, 40, 9.498915432004651e-09
0, 2, 41, 4.656705243633041e-09
0, 2, 42, 9.572169723526258e-09
0, 2, 43, 1.47899612557012e-08
0, 2, 44, 3.318090691095676e-08
0, 2, 45, 5.141482350978777e-09
0, 2, 46, 0
0, 2, 47, 5.119459522973102e-09
0, 2, 48, 3.799102810120303e-09
0, 2, 49, 3.852959729044869e-09
0, 3, 0, 1.789872250412827e-09
0, 3, 1, 1.739849686543948e-08
0, 3, 2, 1.873195110135839e-08
0, 3, 3, 1.19434755418979e-08
0, 3, 4, 1.527706672277418e-08
0, 3, 5, 1.533392790520338e-08
0, 3, 6, 6.696574850195702e-09
0, 3, 7, 3.061622777522643e-08
0, 3, 8, 1.377277492053963e-08
0, 3, 9, 1.838590080183167e-08
0, 3, 10, 1.49702739093982e-08
0, 3, 11, 8.815012719765036e-09
0, 3, 12, 1.048094144806555e-08
0, 3, 13, 1.350982437031689e-08
0, 3, 14, 1.504256630369127e-08
0, 3, 15, 3.440538076660005e-09
0, 3, 16, 8.975421295076558e-09
0, 3, 17, 6.855374046210727e-09
0, 3, 18, 1.492377599277006e-08
0, 3, 19, 8.964739173222824e-09
0, 3, 20, 1.897904944314632e-08
0, 3, 21, 6.885853665039576e-09
0, 3, 22, 1.266490290419142e-08
0, 3, 23, 5.792533563919733e-09
0, 3, 24, 2.718736880069628e-08
0, 3, 25, 2.690269162997083e-08
0, 3, 26, 1.821660333689579e-08
0, 3, 27, 7.819532577002519e-09
0, 3, 28, 1.176088382237594e-08
0, 3, 29, 6.672397301343835e-09
0, 3, 30, 2.010240152117149e-08
0, 3, 31, 2.755229289164163e-08
0, 3, 32, 3.160749173503064e-08
0, 3, 33, 3.308401108625958e-09
0, 3, 34, 4.570100298195712e-09
0, 3, 35, 6.02326855059232e-09
0, 3, 36, 1.658699666506891e-08
0, 3, 37, 2.031650403466756e-08
0, 3, 38, 9.223252384060743e-09
0, 3, 39, 1.652727554812827e-08
0, 3, 40, 1.24097032649928e-09
0, 3, 41, 1.031752283608967e-08
0, 3, 42, 7.384298505996867e-09
0, 3, 43, 9.903046382930825e-09
0, 3, 44, 4.201263781311582e-09
0, 3, 45, 8.192352574099004e-09
0, 3, 46, 4.283075671907e-09
0, 3, 47, 4.491593319499998e-09
0, 3, 48, 1.066595611831644e-08
0, 3, 49, 3.519351920999725e-09
0, 4, 0, 1.09689111127409e-08
0, 4, 1, 8.588152411448391e-09
0, 4, 2, 1.053733278411073e-08
0, 4, 3, 1.464063359435386e-08
0, 4, 4, 1.08844986357326e-08
0, 4, 5, 1.518685799339892e-08
0, 4, 6, 1.555184603319049e-08
0, 4, 7, 1.146973982457666e-08
0, 4, 8, 1.506784386151594e-08
0, 4, 9, 4.411715437413477e-09
0, 4, 10, 8.742629731273155e-09
0, 4, 11, 3.135033210810434e-08
0, 4, 12, 2.451826830451864e-08
0, 4, 13, 1.420678241714768e-08
0, 4, 14, 1.818252570728873e-08
0, 4, 15, 1.851141995246053e-08
0, 4, 16, 9.395851208182648e-09
0, 4, 17, 1.780818514873772e-08
0, 4, 18, 2.473067439723309e-08
0, 4, 19, 5.094012767159484e-09
0, 4, 20, 2.566587475882898e-08
0, 4, 21, 1.200007027080119e-08
0, 4, 22, 1.046311659536059e-08
0, 4, 23, 6.47719744506503e-09
0, 4, 24, 1.758282186514748e-09
0, 4, 25, 1.589818054981151e-08
0, 4, 26, 5.999388097421843e-09
0, 4, 27, 8.543215912482083e-09
0, 4, 28, 1.279821848498841e-08
0, 4, 29, 9.878795559359332e-09
0, 4, 30, 6.974215427391073e-09
0, 4, 31, 1.78673040807098e-08
0, 4, 32, 9.092819830414101e-09
0, 4, 33, 1.933947757493115e-08
0, 4, 34, 1.315113884459151e-08
0, 4, 35, 2.798593712327602e-08
0, 4, 36, 1.723758358274097e-09
0, 4, 37, 1.065828403312707e-08
0, 4, 38, 1.083438494475786e-08
0, 4, 39, 1.421236905940759e-08
0, 4, 40, 5.597665442280686e-09
0, 4, 41, 1.599933874274484e-08
0, 4, 42, 3.723462427274171e-09
0, 4, 43, 3.10588021967817e-09
0, 4, 44, 5.496120003556371e-09
0, 4, 45, 1.675869398809482e-08
0, 4, 46, 1.206895650085471e-08
0, 4, 47, 5.118630852507522e-09
0, 4, 48, 5.224941812542738e-09
0, 4, 49, 7.12486114551325e-09
0, 5, 0, 2.782094910003252e-08
0, 5, 1, 1.599511811889442e-08
0, 5, 2, 5.933150415415867e-09
0, 5, 3, 1.013787809256428e-08
0, 5, 4, 1.830996687601782e-08
0, 5, 5, 7.204049357056874e-09
0, 5, 6, 4.75750061568192e-09
0, 5, 7, 2.866857329308914e-08
0, 5, 8, 1.131699001177822e-08
0, 5, 9, 8.289311459463988e-09
0, 5, 10, 7.446113503561946e-09
0, 5, 11, 7.901264531540164e-09
0, 5, 12, 1.697461549099444e-08
0, 5, 13, 9.27796683924953e-09
0, 5, 14, 1.112808956094113e-08
0, 5, 15, 2.268351195766627e-08
0, 5, 16, 7.617493302802814e-09
0, 5, 17, 1.01936041829731e-08
0, 5, 18, 1.127481752405401e-08
0, 5, 19, 1.699394758247763e-08
0, 5, 20, 9.371223796961203e-09
0, 5, 21, 2.099249485354449e-08
0, 5, 22, 2.812949162489531e-08
0, 5, 23, 5.108944378662272e-09
0, 5, 24, 1.008772709809591e-08
0, 5, 25, 5.384880874537146e-10
0, 5, 26, 8.769013959408767e-09
0, 5, 27, 8.616195756872003e-09
0, 5, 28, 3.433898498883536e-08
0, 5, 29, 6.445671996146984e-09
0, 5, 30, 1.663455506673017e-08
0, 5, 31, 4.471838455089028e-09
0, 5, 32, 7.553789593828242e-09
0, 5, 33, 1.002712846087661e-08
0, 5, 34, 1.313547604020471e-09
0, 5, 35, 5.069241026944837e-09
0, 5, 36, 1.78639183445739e-08
0, 5, 37, 3.412933935464935e-09
0, 5, 38, 1.837079999233993e-08
0, 5, 39, 8.470387946601932e-09
0, 5, 40, 1.496514201448917e-08
0, 5, 41, 6.429031529364693e-09
0, 5, 42, 1.181431041885617e-08
0, 5, 43, 7.535279955561691e-09
0, 5, 44, 2.706510571215404e-09
0, 5, 45, 2.066587079241344e-08
0, 5, 46, 4.9225645781803e-09
0, 5, 47, 4.012286058951986e-09
0, 5, 48, 8.287607933255003e-09
0, 5, 49, 7.30473592724934e-09
0, 6, 0, 3.492909428359781e-08
0, 6, 1, 2.008780874973581e-08
0, 6, 2, 1.715174846594891e-08
0, 6, 3, 1.28416033362555e-09
0, 6, 4, 3.661513403585559e-08
0, 6, 5, 6.951450082226529e-09
0, 6, 6, 1.153343376358862e-08
0, 6, 7, 3.069651199893997e-08
0, 6, 8, 1.501506652346052e-08
0, 6, 9, 6.777190808548994e-09
0, 6, 10, 1.145036243599407e-08
0, 6, 11, 1.440511354644514e-08
0, 6, 12, 1.851694908516777e-09
0, 6, 13, 1.080296740951781e-08
0, 6, 14, 1.083333334150893e-08
0, 6, 15, 3.963004147067295e-09
0, 6, 16, 2.004356325358003e-08
0, 6, 17, 1.886284017871276e-08
0, 6, 18, 1.596525933678095e-08
0, 6, 19, 2.037142188271446e-08
0, 6, 20, 2.243569596771522e-08
0, 6, 21, 1.306035102288661e-08
0, 6, 22, 2.164380674685162e-08
0, 6, 23, 1.148077011237092e-08
0, 6, 24, 1.638275293203151e-08
0, 6, 25, 7.282546565789971e-09
0, 6, 26, 4.686472987458501e-09
0, 6, 27, 5.937029534663907e-09
0, 6, 28, 9.908227127652935e-09
0, 6, 29, 9.717918025842209e-09
0, 6, 30, 7.078981845154431e-09
0, 6, 31, 9.622964647348908e-09
0, 6, 32, 7.178966754395333e-09
0, 6, 33, 1.486835188302393e-08
0, 6, 34, 1.37879716533007e-08
0, 6, 35, 1.301913510332042e-08
0, 6, 36, 1.34495508063992e-08
0, 6, 37, 5.276372672113894e-09
0, 6, 38, 4.075513704293598e-09
0, 6, 39, 9.588722704734209e-09
0, 6, 40, 9.174427439972987e-09
0, 6, 41, 5.556581417209827e-09
0, 6, 42, 6.565098686905912e-09
0, 6, 43, 1.636407098715154e-08
0, 6, 44, 2.048873071203161e-09
0, 6, 45, 7.707793514555306e-09
0, 6, 46, 2.290667655557854e-09
0, 6, 47, 3.428874295607898e-09
0, 6, 48, 6.967959542691915e-09
0, 6, 49, 8.508144411223384e-09
0, 7, 0, 3.623301214616959e-09
0, 7, 1, 1.55179744609768e-08
0, 7, 2, 1.51065293607644e-08
0, 7, 3, 6.778331673729099e-09
0, 7, 4, 2.6544652698135e-08
0, 7, 5, 1.851634401361935e-08
0, 7, 6, 1.022546669560143e-08
0, 7, 7, 1.49983119257513e-08
0, 7, 8, 1.26714843062814e-08
0, 7, 9, 1.151651307651491e-08
0, 7, 10, 3.856430197402005e-08
0, 7, 11, 1.299746887895026e-08
0, 7, 12, 7.48330464261926e-09
0, 7, 13, 2.197248605284585e-08
0, 7, 14, 4.434757006066548e-09
0, 7, 15, 1.658851367380976e-08
0, 7, 16, 4.040541234928696e-09
0, 7, 17, 1.744625777178044e-09
0, 7, 18, 1.230295332277365e-08
0, 7, 19, 3.614871246782059e-08
0, 7, 20, 1.23580585764671e-08
0, 7, 21, 1.237183511193507e-08
0, 7, 22, 2.436495227797764e-09
0, 7, 23, 5.773828526400848e-09
0, 7, 24, 9.122465449706851e-09
0, 7, 25, 1.478252364961463e-08
0, 7, 26, 2.647120567189631e-08
0, 7, 27, 8.831895215166696e-09
0, 7, 28, 1.197190790946934e-08
0, 7, 29, 1.575511276996622e-08
0, 7, 30, 7.461717466128448e-09
0, 7, 31, 1.588138687225182e-08
0, 7, 32, 2.254958531011653e-08
0, 7, 33, 5.82035397656e-09
0, 7, 34, 6.449882850034783e-09
0, 7, 35, 2.415623967522151e-08
0, 7, 36, 2.151372413550234e-08
0, 7, 37, 7.835097015629344e-09
0, 7, 38, 3.005269366695984e-09
0, 7, 39, 6.817359565758352e-09
0, 7, 40, 1.668575677626905e-08
0, 7, 41, 1.489308321112048e-08
0, 7, 42, 5.955879789354412e-09
0, 7, 43, 7.689866521332078e-09
0, 7, 44, 2.43738682570438e-08
0, 7, 45, 6.423259257815062e-09
0, 7, 46, 7.982502658876456e-09
0, 7, 47, 7.45335970719907e-09
0, 7, 48, 1.967750939968482e-08
0, 7, 49, 1.289428297468476e-08
0, 8, 0, 5.216556520082349e-09
0, 8, 1, 2.316965286297545e-08
0, 8, 2, 2.423247025262754e-08
0, 8, 3, 9.637186160205147e-09
0, 8, 4, 2.054913750271226e-08
0, 8, 5, 1.140034999735917e-08
0, 8, 6, 1.377121527923464e-08
0, 8, 7, 1.753699230278016e-08
0, 8, 8, 4.562817235154171e-09
0, 8, 9, 1.583348208100688e-08
0, 8, 10, 1.294860219047678e-08
0, 8, 11, 3.737500620104584e-08
0, 8, 12, 2.469089466217156e-08
0, 8, 13, 8.381649152511272e-09
0, 8, 14, 1.449443498557912e-08
0, 8, 15, 7.328035511733333e-09
0, 8, 16, 8.490924408022238e-09
0, 8, 17, 1.042746422541541e-08
0, 8, 18, 6.146938957840575e-09
0, 8, 19, 2.031555190740164e-08
0, 8, 20, 9.47747480495309e-09
0, 8, 21, 1.890951750738168e-08
0, 8, 22, 1.127631499286963e-08
0, 8, 23, 7.25559656800101e-09
0, 8, 24, 8.702990328401938e-09
0, 8, 25, 2.916659092022655e-08
0, 8, 26, 1.804628979584777e-08
0, 8, 27, 1.004071847887644e-08
0, 8, 28, 1.630245805017694e-08
0, 8, 29, 2.703149526439574e-08
0, 8, 30, 1.077955946726661e-08
0, 8, 31, 4.283948129568671e-08
0, 8, 32, 3.007621529604876e-08
0, 8, 33, 1.489705070412128e-08
0, 8, 34, 2.025522682913561e-08
0, 8, 35, 1.991159948033783e-08
0, 8, 36, 4.53139303857597e-09
0, 8, 37, 2.047886482614558e-08
0, 8, 38, 7.334600926611756e-09
0, 8, 39, 2.633592188772127e-08
0, 8, 40, 7.754255904046659e-09
0, 8, 41, 1.884224332115991e-08
0, 8, 42, 1.007101246841557e-08
0, 8, 43, 1.76557026776436e-08
0, 8, 44, 7.391502521159055e-09
0, 8, 45, 1.114979042426967e-08
0, 8, 46, 8.138324680828646e-09
0, 8, 47, 3.825961769621244e-09
0, 8, 48, 6.919615103129217e-09
0, 8, 49, 7.437421789546761e-09
0, 9, 0, 5.195397889679043e-09
0, 9, 1, 2.242006580388534e-09
0, 9, 2, 1.723350706583915e-08
0, 9, 3, 9.075299622907096e-09
0, 9, 4, 6.433106047865067e-09
0, 9, 5, 5.607451392108942e-09
0, 9, 6, 1.595630116923985e-08
0, 9, 7, 2.236153129331342e-08
0, 9, 8, 3.276624127579453e-08
0, 9, 9, 1.154843243256209e-08
0, 9, 10, 2.364419060540968e-08
0, 9, 11, 6.070619118503373e-09
0, 9, 12, 1.618467493358366e-08
0, 9, 13, 6.458457324498568e-09
0, 9, 14, 7.734473506104678e-09
0, 9, 15, 2.051734071528699e-08
0, 9, 16, 1.864665044593039e-08
0, 9, 17, 1.258080128963002e-08
0, 9, 18, 3.470569609476115e-09
0, 9, 19, 1.305811991869632e-08
0, 9, 20, 8.491834790902431e-09
0, 9, 21, 3.49281563671866e-08
0, 9, 22, 6.703861288315238e-08
0, 9, 23, 2.168018831127938e-08
0, 9, 24, 2.293590739554929e-08
0, 9, 25, 1.565160800964804e-08
0, 9, 26, 1.841844365912948e-08
0, 9, 27, 9.450588756010347e-09
0, 9, 28, 2.084898476084618e-08
0, 9, 29, 1.042347452795411e-08
0, 9, 30, 8.676918739070061e-09
0, 9, 31, 1.000679628049284e-08
0, 9, 32, 1.624997025828634e-08
0, 9, 33, 1.069637889372643e-08
0, 9, 34, 8.94704044185346e-09
0, 9, 35, 1.226530654818703e-09
0, 9, 36, 5.777961220587713e-09
0, 9, 37, 3.277906390763974e-09
0, 9, 38, 1.262572091320635e-08
0, 9, 39, 1.278111305680341e-08
0, 9, 40, 1.3370363483034e-08
0, 9, 41, 1.139635052993526e-08
0, 9, 42, 2.594699566316194e-08
0, 9, 43, 6.037486954824089e-09
0, 9, 44, 3.568328299508039e-09
0, 9, 45, 2.593441683629294e-09
0, 9, 46, 7.730079687462421e-09
0, 9, 47, 4.453303947826726e-09
0, 9, 48, 3.091971345625666e-09
0, 9, 49, 8.700038023334855e-09
0, 10, 0, 2.027825907191527e-09
0, 10, 1, 3.545710214325482e-08
0, 10, 2, 2.962662470906707e-08
0, 10, 3, 1.386319947727088e-09
0, 10, 4, 5.346889153656775e-09
0, 10, 5, 4.101914363729975e-09
0, 10, 6, 7.802848145388452e-09
0, 10, 7, 3.538846371498039e-08
0, 10, 8, 2.677759880498343e-08
0, 10, 9, 1.3506709528599e-08
0, 10, 10, 9.262077327321094e-09
0, 10, 11, 1.130255444792283e-08
0, 10, 12, 2.715660230023786e-08
0, 10, 13, 1.446761110912576e-08
0, 10, 14, 1.484204403823242e-08
0, 10, 15, 2.560057765776946e-08
0, 10, 16, 1.602410115708608e-08
0, 10, 17, 1.644263214473085e-08
0, 10, 18, 7.365675180892595e-09
0, 10, 19, 7.348819774932736e-09
0, 10, 20, 1.517010872476021e-08
0, 10, 21, 2.31946408746353e-08
0, 10, 22, 2.660171993795757e-08
0, 10, 23, 3.353900623892514e-08
0, 10, 24, 1.12834506182935e-08
0, 10, 25, 1.279572625634273e-08
0, 10, 26, 3.7892200488443e-09
0, 10, 27, 3.823528604840476e-09
0, 10, 28, 2.639758278633053e-08
0, 10, 29, 1.582619013618114e-08
0, 10, 30, 4.222598715131198e-09
0, 10, 31, 6.336521085614777e-09
0, 10, 32, 2.972473467366399e-08
0, 10, 33, 4.442842538310288e-08
0, 10, 34, 1.837659446835005e-08
0, 10, 35, 2.678909538644803e-08
0, 10, 36, 1.623085488233755e-08
0, 10, 37, 1.122343284976068e-08
0, 10, 38, 2.303088031396783e-08
0, 10, 39, 8.701996456750294e-09
0, 10, 40, 3.725319075442712e-08
0, 10, 41, 2.510734908867107e-08
0, 10, 42, 1.469026145173302e-08
0, 10, 43, 5.689751336745985e-09
0, 10, 44, 2.671997556547012e-08
0, 10, 45, 1.110327829678681e-08
0, 10, 46, 1.302726015950384e-08
0, 10, 47, 1.024547024996991e-08
0, 10, 48, 1.000597826816829e-08
0, 10, 49, 9.187144378586254e-09
0, 11, 0, 1.760406043160856e-08
0, 11, 1, 1.627953238880764e-08
0, 11, 2, 1.309332908761007e-08
0, 11, 3, 6.663278817597984e-09
0, 11, 4, 3.290950800760584e-08
0, 11, 5, 2.388004460840421e-08
0, 11, 6, 1.135849192479554e-08
0, 11, 7, 2.61951953461903e-08
0, 11, 8, 9.921931720668908e-09
0, 11, 9, 8.055487832336894e-09
0, 11, 10, 7.685838632198738e-09
0, 11, 11, 2.071350735377564e-08
0, 11, 12, 1.41916798312991e-08
0, 11, 13, 1.443946118229178e-08
0, 11, 14, 2.064229143172724e-08
0, 11, 15, 6.588019463293904e-09
0, 11, 16, 3.53932385621647e-08
0, 11, 17, 8.501705117680558e-09
0, 11, 18, 1.055035081520828e-08
0, 11, 19, 2.824830502845543e-08
0, 11, 20, 3.142775151232513e-09
0, 11, 21, 1.651507552935527e-08
0, 11, 22, 8.812249596701349e-09
0, 11, 23, 1.286858708482441e-08
0, 11, 24, 1.346507261246188e-08
0, 11, 25, 1.264027993386208e-08
0, 11, 26, 2.605135840383355e-08
0, 11, 27, 2.411205279884143e-08
0, 11, 28, 2.73926232807753e-08
0, 11, 29, 4.163666300627256e-09
0, 11, 30, 5.55840795612994e-09
0, 11, 31, 7.316112160538069e-09
0, 11, 32, 1.614721134579611e-09
0, 11, 33, 7.634447740656469e-09
0, 11, 34, 2.174825119993784e-08
0, 11, 35, 2.148750333219596e-08
0, 11, 36, 8.220673031189563e-09
0, 11, 37, 1.445204755867735e-08
0, 11, 38, 2.331434956204248e-08
0, 11, 39, 1.34840858478924e-08
0, 11, 40, 7.065636520309226e-09
0, 11, 41, 8.805185025551054e-09
0, 11, 42, 1.249038827921822e-08
0, 11, 43, 2.920753949808841e-08
0, 11, 44, 1.207794753099733e-08
0, 11, 45, 2.431350232257046e-08
0, 11, 46, 1.160029228230997e-08
0, 11, 47, 8.497949011143646e-09
0, 11, 48, 1.89583317933284e-08
0, 11, 49, 9.566100800384447e-09
0, 12, 0, 7.160442461184857e-09
0, 12, 1, 1.375329983233087e-08
0, 12, 2, 2.704562618305317e-08
0, 12, 3, 1.616920286551249e-08
0, 12, 4, 1.452714748495509e-08
0, 12, 5, 0
0, 12, 6, 9.343407825213035e-09
0, 12, 7, 1.977108610162759e-08
0, 12, 8, 5.633720157049993e-09
0, 12, 9, 1.81037069779677e-08
0, 12, 10, 1.658339598975545e-08
0, 12, 11, 1.398104476635353e-08
0, 12, 12, 3.92051724418252e-09
0, 12, 13, 2.028741619142238e-08
0, 12, 14, 2.636674700795538e-08
0, 12, 15, 1.892112067025664e-08
0, 12, 16, 2.95073085965214e-08
0, 12, 17, 1.728352572172298e-08
0, 12, 18, 3.120612035445447e-08
0, 12, 19, 1.866824694829461e-09
0, 12, 20, 2.861998460446102e-08
0, 12, 21, 3.686381333523059e-08
0, 12, 22, 1.416245076768519e-08
0, 12, 23, 1.278288586092913e-08
0, 12, 24, 1.112255798574324e-08
0, 12, 25, 5.230369470865526e-09
0, 12, 26, 6.395532103908863e-09
0, 12, 27, 1.986558295641316e-08
0, 12, 28, 1.719844178182939e-08
0, 12, 29, 2.240940943920577e-08
0, 12, 30, 1.816458627956763e-08
0, 12, 31, 5.372237765755017e-09
0, 12, 32, 1.09827160699183e-08
0, 12, 33, 2.244305186138718e-08
0, 12, 34, 9.100412867724117e-09
0, 12, 35, 8.669629458779582e-09
0, 12, 36, 1.377735525665003e-08
0, 12, 37, 1.083942002821914e-08
0, 12, 38, 1.241201008639337e-08
0, 12, 39, 1.620271206093093e-08
0, 12, 40, 3.848145979645778e-08
0, 12, 41, 4.05856726004572e-09
0, 12, 42, 6.326503321218979e-09
0, 12, 43, 1.866276555517743e-08
0, 12, 44, 1.117272940831526e-08
0, 12, 45, 1.264278992607615e-08
0, 12, 46, 7.333214480098604e-09
0, 12, 47, 1.347375899740655e-08
0, 12, 48, 8.855003841290454e-09
0, 12, 49, 6.595560986255578e-09
0, 13, 0, 7.53415818621761e-09
0, 13, 1, 2.135557508609054e-08
0, 13, 2, 6.238551897297384e-09
0, 13, 3, 1.757409684444156e-08
0, 13, 4, 7.555972736383865e-09
0, 13, 5, 1.520797177079203e-08
0, 13, 6, 2.557996481300506e-08
0, 13, 7, 3.479932075833858e-08
0, 13, 8, 1.741721789016992e-08
0, 13, 9, 1.649375214185511e-08
0, 13, 10, 4.74279708839731e-08
0, 13, 11, 1.321524134567653e-08
0, 13, 12, 5.848397766072821e-09
0, 13, 13, 2.942240051595491e-08
0, 13, 14, 2.24950582605743e-08
0, 13, 15, 5.417714721289713e-09
0, 13, 16, 2.171841018139276e-08
0, 13, 17, 3.487203770191627e-08
0, 13, 18, 1.780915859228571e-08
0, 13, 19, 4.205983827887394e-08
0, 13, 20, 1.559785189897411e-08
0, 13, 21, 1.537992844191649e-08
0, 13, 22, 1.812516892130134e-08
0, 13, 23, 2.494211770454058e-08
0, 13, 24, 1.588328757406998e-08
0, 13, 25, 2.683284172633194e-08
0, 13, 26, 1.397502380484639e-08
0, 13, 27, 2.567115764406935e-08
0, 13, 28, 1.009788164196834e-08
0, 13, 29, 1.669166493911689e-08
0, 13, 30, 1.125384141431596e-08
0, 13, 31, 2.54128185162017e-08
0, 13, 32, 1.514130154589566e-08
0, 13, 33, 2.908414398206105e-09
0, 13, 34, 4.700214439878891e-09
0, 13, 35, 2.686278932628738e-08
0, 13, 36, 1.82321944208752e-08
0, 13, 37, 1.246312741898237e-08
0, 13, 38, 1.654037795617569e-08
0, 13, 39, 1.048986786322814e-09
0, 13, 40, 2.078735938937371e-08
0, 13, 41, 1.151822903722177e-08
0, 13, 42, 1.5523204055512e-08
0, 13, 43, 2.979960944671234e-09
0, 13, 44, 1.034429075730259e-08
0, 13, 45, 1.175732222691295e-08
0, 13, 46, 1.424003581718125e-08
0, 13, 47, 1.583968334273322e-08
0, 13, 48, 1.791505432890972e-08
0, 13, 49, 1.935720028711785e-08
0, 14, 0, 1.894371770561065e-08
0, 14, 1, 1.37114897214019e-08
0, 14, 2, 1.405637295448514e-08
0, 14, 3, 1.766312252016178e-08
0, 14, 4, 2.620888039928104e-08
0, 14, 5, 3.732219866492414e-08
0, 14, 6, 1.520495374052189e-08
0, 14, 7, 1.151633721718781e-08
0, 14, 8, 6.826585519092987e-09
0, 14, 9, 8.581961807863081e-09
0, 14, 10, 1.635507729247365e-08
0, 14, 11, 1.980762398545721e-08
0, 14, 12, 3.135006920729211e-08
0, 14, 13, 1.719859454851758e-08
0, 14, 14, 8.053758548953738e-09
0, 14, 15, 1.877308619668838e-08
0, 14, 16, 3.330126929768085e-08
0, 14, 17, 1.744047217755451e-08
0, 14, 18, 1.722324682873477e-08
0, 14, 19, 1.584362152584617e-08
0, 14, 20, 1.684407280322375e-08
0, 14, 21, 1.429176421652301e-08
0, 14, 22, 9.516302412748701e-09
0, 14, 23, 2.402232901488333e-08
0, 14, 24, 2.880197946808494e-08
0, 14, 25, 1.170276764383971e-08
0, 14, 26, 6.962307175228943e-09
0, 14, 27, 1.526978365973264e-08
0, 14, 28, 3.14137196255615e-08
0, 14, 29, 2.417154476574979e-08
0, 14, 30, 3.290095662578096e-08
0, 14, 31, 2.838748258682244e-08
0, 14, 32, 2.89562311905911e-08
0, 14, 33, 1.650529490859753e-08
0, 14, 34, 1.506814228946496e-08
0, 14, 35, 1.248579994950205e-08
0, 14, 36, 2.326653003592583e-08
0, 14, 37, 1.134217431086881e-08
0, 14, 38, 2.803002274731625e-08
0, 14, 39, 1.292876650182961e-08
0, 14, 40, 3.220084465738182e-08
0, 14, 41, 1.385478487492264e-08
0, 14, 42, 1.938198757045484e-08
0, 14, 43, 1.714451336454204e-08
0, 14, 44, 1.404970895180213e-08
0, 14, 45, 1.342183875152614e-08
0, 14, 46, 1.464731180789158e-08
0, 14, 47, 1.727589449274092e-08
0, 14, 48, 1.970680507668021e-09
0, 14, 49, 1.104750158020806e-08
0, 15, 0, 2.701116486036881e-08
0, 15, 1, 9.234023323756446e-09
0, 15, 2, 8.07972710958893e-09
0, 15, 3, 6.222296899949242e-09
0, 15, 4, 3.059126640891918e-08
0, 15, 5, 2.741265348049637e-08
0, 15, 6, 4.478289028497784e-08
0, 15, 7, 6.575465505420652e-09
0, 15, 8, 1.07057278597722e-08
0, 15, 9, 2.616159910928673e-08
0, 15, 10, 2.308551927399094e-08
0, 15, 11, 4.603974534944655e-09
0, 15, 12, 2.706230972648882e-08
0, 15, 13, 2.758814732217729e-09
0, 15, 14, 8.518507677024445e-09
0, 15, 15, 8.253470795693829e-09
0, 15, 16, 2.659323961040627e-08
0, 15, 17, 2.352933847760141e-08
0, 15, 18, 1.140258554244156e-08
0, 15, 19, 1.19005054699528e-08
0, 15, 20, 2.339138127638307e-08
0, 15, 21, 1.865863019645531e-08
0, 15, 22, 2.658215514372841e-08
0, 15, 23, 1.342647237834171e-08
0, 15, 24, 1.647383918168543e-08
0, 15, 25, 1.416484352034786e-08
0, 15, 26, 3.404298709597242e-08
0, 15, 27, 2.155942446790959e-08
0, 15, 28, 1.952206751809626e-08
0, 15, 29, 1.205994504260843e-08
0, 15, 30, 3.537489234872737e-08
0, 15, 31, 8.775414173101126e-09
0, 15, 32, 1.573234342799879e-08
0, 15, 33, 2.440073210152605e-08
0, 15, 34, 2.558127043528202e-08
0, 15, 35, 1.174880459586802e-08
0, 15, 36, 2.661391640401689e-08
0, 15, 37, 5.146493009533515e-09
0, 15, 38, 2.347411509617814e-08
0, 15, 39, 1.90481994621905e-08
0, 15, 40, 4.263801400838929e-08
0, 15, 41, 9.840792181137203e-09
0, 15, 42, 1.509626557094634e-08
0, 15, 43, 1.752971456880914e-08
0, 15, 44, 1.138282090806797e-08
0, 15, 45, 1.233269131262205e-08
0, 15, 46, 1.336364174875371e-08
0, 15, 47, 7.348031960674462e-09
0, 15, 48, 1.95515319489914e-08
0, 15, 49, 6.72548949864904e-09
0, 16, 0, 5.740143027566091e-09
0, 16, 1, 1.079981259977103e-08
0, 16, 2, 2.589090497551183e-09
0, 16, 3, 8.347083912951803e-09
0, 16, 4, 3.782516344585929e-08
0, 16, 5, 1.028496043886662e-08
0, 16, 6, 1.226803192366788e-08
0, 16, 7, 2.019513978268606e-08
0, 16, 8, 2.197396042902255e-08
0, 16, 9, 2.849857771991537e-08
0, 16, 10, 2.30187602312526e-08
0, 16, 11, 7.566674398162831e-09
0, 16, 12, 6.431090326941558e-09
0, 16, 13, 2.93723019240133e-08
0, 16, 14, 1.669380367275153e-08
0, 16, 15, 1.60376636415549e-08
0, 16, 16, 6.921049955366243e-09
0, 16, 17, 5.840475658658306e-09
0, 16, 18, 7.44165928878715e-09
0, 16, 19, 6.656085460576833e-09
0, 16, 20, 3.861052988440861e-08
0, 16, 21, 1.395674509296896e-08
0, 16, 22, 2.017788602870496e-08
0, 16, 23, 1.791687864738378e-08
0, 16, 24, 3.156200989451463e-08
0, 16, 25, 1.976872709974486e-08
0, 16, 26, 1.804181160025564e-08
0, 16, 27, 1.504980851052551e-08
0, 16, 28, 1.890579603980314e-08
0, 16, 29, 2.353782235786639e-08
0, 16, 30, 1.47481946655148e-08
0, 16, 31, 1.596284171512252e-08
0, 16, 32, 2.217447025998354e-08
0, 16, 33, 9.814111301409412e-09
0, 16, 34, 2.353165839963367e-08
0, 16, 35, 1.182662501264531e-08
0, 16, 36, 2.267073107020678e-08
0, 16, 37, 2.320095893182383e-09
0, 16, 38, 1.243224900804307e-08
0, 16, 39, 1.323310794276722e-08
0, 16, 40, 2.502430618278595e-08
0, 16, 41, 8.661168671153519e-09
0, 16, 42, 1.96502547566979e-08
0, 16, 43, 1.634053425902948e-08
0, 16, 44, 1.457160969664528e-08
0, 16, 45, 1.656576209541072e-08
0, 16, 46, 2.336179916184733e-09
0, 16, 47, 2.616632688301479e-09
0, 16, 48, 4.387128438310128e-09
0, 16, 49, 1.797225301913841e-08
0, 17, 0, 1.18521743530664e-08
0, 17, 1, 8.92053275691751e-09
0, 17, 2, 1.927652704125649e-08
0, 17, 3, 1.253041403970201e-08
0, 17, 4, 1.976283670046541e-08
0, 17, 5, 1.290652384966506e-08
0, 17, 6, 3.780326096602948e-08
0, 17, 7, 2.583148983603678e-08
0, 17, 8, 2.787776054447022e-08
0, 17, 9, 1.730206022898528e-08
0, 17, 10, 3.333768816560223e-08
0, 17, 11, 2.435383095189536e-08
0, 17, 12, 1.706321661743004e-08
0, 17, 13, 1.186211928683178e-08
0, 17, 14, 1.485506562204364e-08
0, 17, 15, 1.918856362692622e-08
0, 17, 16, 1.250337078317898e-08
0, 17, 17, 2.987481195759756e-08
0, 17, 18, 2.042025037951589e-08
0, 17, 19, 1.725003606622977e-08
0, 17, 20, 2.057416814693624e-08
0, 17, 21, 2.037808499721905e-08
0, 17, 22, 1.679500982731952e-08
0, 17, 23, 1.324345433317831e-08
0, 17, 24, 1.636534818771906e-08
0, 17, 25, 3.184322494576008e-08
0, 17, 26, 1.643585534338854e-08
0, 17, 27, 1.896932033673693e-08
0, 17, 28, 2.518797259654093e-08
0, 17, 29, 4.079027959846826e-08
0, 17, 30, 1.481606748399145e-08
0, 17, 31, 3.075476939784494e-08
0, 17, 32, 1.690365181161724e-08
0, 17, 33, 5.198828478825135e-09
0, 17, 34, 1.694301232646467e-08
0, 17, 35, 2.481272609600182e-08
0, 17, 36, 2.121829467682801e-08
0, 17, 37, 4.5505942125601e-08
0, 17, 38, 1.6832434113212e-08
0, 17, 39, 1.059845722295449e-08
0, 17, 40, 1.101749891319059e-08
0, 17, 41, 4.785977480992187e-08
0, 17, 42, 1.090723689145534e-08
0, 17, 43, 2.854908842664372e-08
0, 17, 44, 1.828709272899687e-08
0, 17, 45, 1.675381611221383e-08
0, 17, 46, 2.156452620638571e-11
0, 17, 47, 4.985729606943323e-09
0, 17, 48, 5.91293902729717e-09
0, 17, 49, 5.969318372933685e-09
0, 18, 0, 1.88723685567993e-08
0, 18, 1, 1.732049881297826e-08
0, 18, 2, 1.971895180474803e-08
0, 18, 3, 3.20864721459202e-08
0, 18, 4, 3.195556885771111e-08
0, 18, 5, 1.166982155353935e-08
0, 18, 6, 4.111713192145316e-09
0, 18, 7, 8.89870310771812e-09
0, 18, 8, 2.62617270152532e-08
0, 18, 9, 2.821412214970564e-09
0, 18, 10, 8.142492013973879e-09
0, 18, 11, 1.170637098368843e-08
0, 18, 12, 2.302945922849631e-08
0, 18, 13, 9.16586095911498e-09
0, 18, 14, 3.047532715072521e-08
0, 18, 15, 1.455933507088503e-08
0, 18, 16, 1.293241869149142e-08
0, 18, 17, 2.925894371230697e-08
0, 18, 18, 1.402006599704464e-08
0, 18, 19, 2.553262845594872e-08
0, 18, 20, 3.837393691696889e-08
0, 18, 21, 8.146193941627189e-09
0, 18, 22, 3.802560399890353e-08
0, 18, 23, 1.384979864127445e-08
0, 18, 24, 2.008366806194317e-08
0, 18, 25, 2.182566838371258e-08
0, 18, 26, 2.96823330359075e-08
0, 18, 27, 1.826691331530128e-08
0, 18, 28, 2.073395499735398e-08
