# TOPAS Version: 3.7
# Parameter File: TestingDose9.txt
# Results for scorer TestingDose9_Lung
# Scored in component: Lung
# X in 50 bins of 0.1 cm
# Y in 50 bins of 0.1 cm
# Z in 10 bins of 0.1 cm
# DoseToMedium ( Gy ) : Sum   
0, 0, 0, 3.864201403303014e-09
0, 0, 1, 0
0, 0, 2, 8.036968424107727e-09
0, 0, 3, 1.320887665912096e-08
0, 0, 4, 0
0, 0, 5, 2.256747322348929e-08
0, 0, 6, 4.284970989143488e-10
0, 0, 7, 1.321147014010648e-08
0, 0, 8, 1.411753713931319e-09
0, 0, 9, 1.846835395724611e-08
0, 1, 0, 2.572176693860229e-09
0, 1, 1, 2.613480631907805e-08
0, 1, 2, 7.750368347103631e-09
0, 1, 3, 9.207728801641224e-09
0, 1, 4, 1.461653376111371e-08
0, 1, 5, 1.013339456790163e-08
0, 1, 6, 2.21958118551413e-09
0, 1, 7, 1.457948162197908e-08
0, 1, 8, 4.212747040099885e-09
0, 1, 9, 6.085750570150594e-09
0, 2, 0, 3.772302470395061e-09
0, 2, 1, 3.723258501509008e-08
0, 2, 2, 5.103243161386217e-09
0, 2, 3, 1.263957205566157e-08
0, 2, 4, 1.340716959674637e-08
0, 2, 5, 1.493203782843011e-09
0, 2, 6, 3.183396435346708e-09
0, 2, 7, 4.613117443597048e-09
0, 2, 8, 9.49595602151021e-09
0, 2, 9, 3.358538558373425e-09
0, 3, 0, 8.149747543484409e-09
0, 3, 1, 1.853789299843811e-08
0, 3, 2, 2.138999199985392e-08
0, 3, 3, 9.874462136849615e-09
0, 3, 4, 9.523868804706126e-09
0, 3, 5, 5.431185279292094e-09
0, 3, 6, 2.529283449348441e-09
0, 3, 7, 6.082554460107303e-09
0, 3, 8, 9.53315648644093e-09
0, 3, 9, 3.88352194846675e-09
0, 4, 0, 1.315825937098225e-08
0, 4, 1, 1.092705037564201e-08
0, 4, 2, 1.037350561006178e-08
0, 4, 3, 2.671254106800802e-09
0, 4, 4, 5.675542258387622e-09
0, 4, 5, 8.254248839989486e-09
0, 4, 6, 1.847144126543299e-08
0, 4, 7, 5.558807192329596e-09
0, 4, 8, 4.00007005296743e-09
0, 4, 9, 1.056390352971448e-08
0, 5, 0, 7.884470853980474e-09
0, 5, 1, 3.406543935824402e-09
0, 5, 2, 2.701730394960578e-09
0, 5, 3, 6.055411727601268e-09
0, 5, 4, 2.983054159244602e-08
0, 5, 5, 9.91730697563753e-09
0, 5, 6, 6.837249433289116e-09
0, 5, 7, 2.646285857110797e-08
0, 5, 8, 1.257684179023499e-08
0, 5, 9, 1.036033481227605e-08
0, 6, 0, 2.305313984152235e-08
0, 6, 1, 8.59052562418583e-09
0, 6, 2, 7.995017092810031e-09
0, 6, 3, 1.633597968009326e-08
0, 6, 4, 5.436863403929237e-09
0, 6, 5, 9.256116761946487e-09
0, 6, 6, 1.613607913952819e-08
0, 6, 7, 1.457063714127571e-08
0, 6, 8, 2.552079214623859e-09
0, 6, 9, 7.952773550812253e-09
0, 7, 0, 1.468115229386058e-08
0, 7, 1, 1.898686541323968e-08
0, 7, 2, 9.232020481420022e-09
0, 7, 3, 1.163154195182869e-08
0, 7, 4, 5.847553996574106e-09
0, 7, 5, 7.707228633080376e-09
0, 7, 6, 7.241281352321494e-09
0, 7, 7, 6.600080038055012e-09
0, 7, 8, 1.12457643197672e-08
0, 7, 9, 8.251733518704896e-09
0, 8, 0, 1.168232355297505e-08
0, 8, 1, 4.5888821631479e-09
0, 8, 2, 7.678675473243857e-10
0, 8, 3, 9.644534948449746e-09
0, 8, 4, 1.177273389885158e-08
0, 8, 5, 4.710564827092867e-09
0, 8, 6, 3.446637109050243e-08
0, 8, 7, 2.375938557008794e-08
0, 8, 8, 3.479257992822227e-09
0, 8, 9, 8.580148147530053e-09
0, 9, 0, 3.78290998526154e-09
0, 9, 1, 1.560473705808363e-08
0, 9, 2, 8.509226212538579e-09
0, 9, 3, 7.211853780830779e-09
0, 9, 4, 1.472507893396369e-08
0, 9, 5, 1.621943113150337e-08
0, 9, 6, 1.208216460213407e-08
0, 9, 7, 9.552464597106791e-09
0, 9, 8, 2.551164435260489e-08
0, 9, 9, 3.987458363496899e-09
0, 10, 0, 1.569041430116158e-08
0, 10, 1, 4.475724679764426e-09
0, 10, 2, 1.031957630459601e-08
0, 10, 3, 1.828648166224411e-08
0, 10, 4, 9.645264142932319e-09
0, 10, 5, 6.718385403559068e-09
0, 10, 6, 8.683557872757319e-09
0, 10, 7, 2.615918814896645e-09
0, 10, 8, 1.650070657888136e-08
0, 10, 9, 2.328981274501984e-08
0, 11, 0, 8.953143115775219e-09
0, 11, 1, 1.043751307605589e-08
0, 11, 2, 9.10139630327933e-10
0, 11, 3, 3.968231254702914e-08
0, 11, 4, 1.500421653588546e-08
0, 11, 5, 9.560864988600315e-09
0, 11, 6, 2.067588589227398e-08
0, 11, 7, 2.022852108041207e-08
0, 11, 8, 7.928750989094624e-09
0, 11, 9, 6.220516990396163e-09
0, 12, 0, 8.768957115989906e-09
0, 12, 1, 3.549951088643866e-08
0, 12, 2, 1.101149216253816e-08
0, 12, 3, 2.044853175675598e-08
0, 12, 4, 1.766387747181852e-08
0, 12, 5, 5.545089276637327e-09
0, 12, 6, 1.390763237907322e-08
0, 12, 7, 9.282983270963996e-09
0, 12, 8, 1.065438937075669e-08
0, 12, 9, 1.89377686865555e-08
0, 13, 0, 5.42041656004244e-09
0, 13, 1, 1.03023038988681e-08
0, 13, 2, 6.744692582216771e-10
0, 13, 3, 2.485249517292232e-08
0, 13, 4, 1.256295689699982e-08
0, 13, 5, 1.278869010690187e-08
0, 13, 6, 3.58127358879301e-08
0, 13, 7, 1.291622186982977e-08
0, 13, 8, 1.509279279332532e-08
0, 13, 9, 1.693292617233055e-08
0, 14, 0, 1.927721804406701e-08
0, 14, 1, 1.305140706620023e-08
0, 14, 2, 1.206806654607817e-08
0, 14, 3, 1.418911210748774e-08
0, 14, 4, 8.729431399956411e-09
0, 14, 5, 2.643693264303693e-09
0, 14, 6, 1.75112369049657e-08
0, 14, 7, 1.681631900396496e-08
0, 14, 8, 2.083741357239433e-08
0, 14, 9, 7.563044635006122e-10
0, 15, 0, 2.530090981167632e-08
0, 15, 1, 2.663505149769207e-08
0, 15, 2, 2.414445710030577e-08
0, 15, 3, 1.45261962458676e-08
0, 15, 4, 9.33930532909244e-09
0, 15, 5, 1.007427652410797e-08
0, 15, 6, 3.580800100877468e-09
0, 15, 7, 2.819271749388008e-08
0, 15, 8, 1.830691154225406e-08
0, 15, 9, 1.126350746005755e-08
0, 16, 0, 1.939601368405874e-08
0, 16, 1, 1.852543718428024e-08
0, 16, 2, 9.235320952427628e-09
0, 16, 3, 2.916811325803792e-08
0, 16, 4, 2.282685862553535e-08
0, 16, 5, 1.036020336186994e-08
0, 16, 6, 1.006914907009104e-08
0, 16, 7, 2.95970910002552e-08
0, 16, 8, 3.981815055453808e-08
0, 16, 9, 4.828048627558701e-09
0, 17, 0, 1.245122138726629e-08
0, 17, 1, 1.472032451488303e-08
0, 17, 2, 1.680909300638689e-09
0, 17, 3, 1.068743227250479e-08
0, 17, 4, 2.456416758889191e-08
0, 17, 5, 1.129428284230016e-08
0, 17, 6, 2.079370453600404e-08
0, 17, 7, 1.344573430372975e-08
0, 17, 8, 1.954154882355397e-08
0, 17, 9, 4.320136426372301e-08
0, 18, 0, 1.513940262043434e-08
0, 18, 1, 7.461687268062178e-09
0, 18, 2, 2.343966265527797e-08
0, 18, 3, 2.101300644596904e-08
0, 18, 4, 1.668493965212292e-08
0, 18, 5, 3.639915391318027e-08
0, 18, 6, 9.527079569693342e-09
0, 18, 7, 1.178129238610381e-08
0, 18, 8, 2.634767604092758e-08
0, 18, 9, 2.089574913100023e-08
0, 19, 0, 1.267983495978342e-08
0, 19, 1, 1.150371353730861e-08
0, 19, 2, 2.079039163049856e-08
0, 19, 3, 1.280290184979549e-08
0, 19, 4, 1.73376104584122e-08
0, 19, 5, 1.277134931143564e-08
0, 19, 6, 1.499653734526873e-08
0, 19, 7, 1.453302456155825e-08
0, 19, 8, 2.449425728912047e-08
0, 19, 9, 1.242334057849348e-08
0, 20, 0, 1.957714701461555e-08
0, 20, 1, 2.716995872731331e-08
0, 20, 2, 1.17066401017496e-08
0, 20, 3, 1.401234150932851e-08
0, 20, 4, 1.608395017171915e-08
0, 20, 5, 3.271044102248766e-09
0, 20, 6, 1.533113724860868e-08
0, 20, 7, 1.903997315366723e-08
0, 20, 8, 3.731051378963457e-08
0, 20, 9, 3.327095043914596e-09
0, 21, 0, 1.340894062451525e-08
0, 21, 1, 2.236643936726068e-08
0, 21, 2, 2.757237993478157e-09
0, 21, 3, 1.692967011024393e-08
0, 21, 4, 1.38749358669088e-08
0, 21, 5, 8.907516502176804e-09
0, 21, 6, 1.312234942929535e-08
0, 21, 7, 4.305930190184881e-08
0, 21, 8, 1.009402250673475e-08
0, 21, 9, 1.191227383401383e-08
0, 22, 0, 1.078037481505589e-08
0, 22, 1, 1.166215302106366e-08
0, 22, 2, 6.372751215621975e-09
0, 22, 3, 1.133206062320369e-08
0, 22, 4, 1.204808963706228e-08
0, 22, 5, 2.536670073993719e-08
0, 22, 6, 3.328908348976256e-08
0, 22, 7, 7.714409555603652e-09
0, 22, 8, 1.920927417131679e-08
0, 22, 9, 2.522142672489736e-08
0, 23, 0, 1.61729456493731e-08
0, 23, 1, 7.116857769773333e-09
0, 23, 2, 4.181998747299076e-09
0, 23, 3, 6.783597683579501e-09
0, 23, 4, 1.707127061933988e-08
0, 23, 5, 1.523848425222241e-08
0, 23, 6, 2.791827569126326e-08
0, 23, 7, 1.82110628799137e-08
0, 23, 8, 3.17625148404943e-09
0, 23, 9, 1.609217292752874e-08
0, 24, 0, 8.020685449139364e-09
0, 24, 1, 1.903392643498591e-08
0, 24, 2, 1.076435474089976e-08
0, 24, 3, 1.392814219514094e-08
0, 24, 4, 2.664798515183975e-08
0, 24, 5, 1.389128456708022e-08
0, 24, 6, 2.208592420060995e-08
0, 24, 7, 3.88277214824484e-08
0, 24, 8, 7.336077967323718e-09
0, 24, 9, 1.228547308329553e-08
0, 25, 0, 1.880387578978571e-08
0, 25, 1, 9.068502393461131e-09
0, 25, 2, 2.01886045658739e-08
0, 25, 3, 1.834301066594435e-08
0, 25, 4, 1.64851314821135e-08
0, 25, 5, 1.644720981630599e-08
0, 25, 6, 1.568119856187877e-08
0, 25, 7, 2.238782315089338e-08
0, 25, 8, 3.591065222963152e-08
0, 25, 9, 2.531699294650025e-08
0, 26, 0, 2.328149228958409e-08
0, 26, 1, 2.36126727060082e-08
0, 26, 2, 1.705133634288813e-08
0, 26, 3, 2.363229967272673e-08
0, 26, 4, 1.498292689916525e-08
0, 26, 5, 1.822088790959242e-08
0, 26, 6, 3.642019308358613e-08
0, 26, 7, 1.78753740698312e-08
0, 26, 8, 2.391216114006056e-08
0, 26, 9, 5.605728858881776e-08
0, 27, 0, 2.530727449823189e-08
0, 27, 1, 1.870522403635277e-08
0, 27, 2, 1.835676499695182e-08
0, 27, 3, 1.156213969011333e-08
0, 27, 4, 9.826311320182413e-09
0, 27, 5, 1.419172601657692e-08
0, 27, 6, 1.087755396866896e-08
0, 27, 7, 3.946888682548888e-08
0, 27, 8, 1.797746485010521e-08
0, 27, 9, 1.883931410873174e-08
0, 28, 0, 2.890055839088745e-08
0, 28, 1, 6.650470840696698e-09
0, 28, 2, 2.331121962129146e-08
0, 28, 3, 1.291236095823933e-08
0, 28, 4, 2.439690049982346e-08
0, 28, 5, 3.488462141376658e-08
0, 28, 6, 3.113405711019368e-08
0, 28, 7, 1.057841370055712e-08
0, 28, 8, 8.388356675936848e-09
0, 28, 9, 1.197974253130951e-08
0, 29, 0, 2.80161973620352e-08
0, 29, 1, 1.844932029371193e-08
0, 29, 2, 2.593135128847734e-08
0, 29, 3, 1.126570214893263e-08
0, 29, 4, 2.128184029004387e-08
0, 29, 5, 2.766456042024856e-08
0, 29, 6, 4.598326341920256e-08
0, 29, 7, 1.298367635627073e-08
0, 29, 8, 5.266567271178246e-08
0, 29, 9, 1.259676540854571e-08
0, 30, 0, 1.589491027687018e-08
0, 30, 1, 8.962328656991758e-09
0, 30, 2, 4.45177938956931e-08
0, 30, 3, 1.676384719928592e-08
0, 30, 4, 4.060568059571779e-08
0, 30, 5, 2.465304582699446e-08
0, 30, 6, 3.558612604592781e-08
0, 30, 7, 2.529261067252264e-08
0, 30, 8, 6.862761470216583e-09
0, 30, 9, 2.236275875588944e-08
0, 31, 0, 1.955515394058693e-08
0, 31, 1, 9.426854852279121e-09
0, 31, 2, 1.234281921114189e-08
0, 31, 3, 3.071199827786586e-08
0, 31, 4, 5.990975271430443e-09
0, 31, 5, 1.643061509071231e-08
0, 31, 6, 1.475430888575602e-08
0, 31, 7, 7.853809158575586e-09
0, 31, 8, 1.589026510373515e-08
0, 31, 9, 1.506336744228065e-08
0, 32, 0, 1.59655009213111e-08
0, 32, 1, 3.142368498743053e-08
0, 32, 2, 3.827868866324025e-08
0, 32, 3, 1.800339255453309e-08
0, 32, 4, 8.456692235370156e-09
0, 32, 5, 1.039563635174545e-08
0, 32, 6, 2.603775506315742e-08
0, 32, 7, 2.512163987944405e-08
0, 32, 8, 2.215737637811799e-08
0, 32, 9, 1.554460027364257e-08
0, 33, 0, 4.280537169165655e-08
0, 33, 1, 1.568310636912429e-08
0, 33, 2, 1.779203273599705e-08
0, 33, 3, 1.527378046262129e-08
0, 33, 4, 2.424688894109295e-08
0, 33, 5, 1.714085762216655e-08
0, 33, 6, 8.263858930490642e-09
0, 33, 7, 1.958366269150247e-08
0, 33, 8, 1.774155933276234e-08
0, 33, 9, 1.62566724526414e-08
0, 34, 0, 3.254156411003351e-08
0, 34, 1, 1.0501592484502e-08
0, 34, 2, 1.159609741563372e-08
0, 34, 3, 1.730196430571596e-08
0, 34, 4, 8.38831937244322e-09
0, 34, 5, 1.540319516379896e-08
0, 34, 6, 2.866294579462192e-08
0, 34, 7, 3.68499861735927e-08
0, 34, 8, 1.861146259329871e-08
0, 34, 9, 1.703447338741171e-08
0, 35, 0, 1.665018700691689e-08
0, 35, 1, 3.691906158564962e-08
0, 35, 2, 2.10762269858833e-08
0, 35, 3, 2.444551938651784e-08
0, 35, 4, 1.778028213550442e-08
0, 35, 5, 1.356809065100606e-08
0, 35, 6, 2.358049222550562e-08
0, 35, 7, 7.781520316996193e-09
0, 35, 8, 1.899739743294049e-08
0, 35, 9, 5.377248868398965e-08
0, 36, 0, 4.629704175584948e-09
0, 36, 1, 1.355936962710302e-08
0, 36, 2, 1.579141795104988e-08
0, 36, 3, 6.054705181668396e-09
0, 36, 4, 3.642293933125984e-08
0, 36, 5, 2.187453596036448e-08
0, 36, 6, 2.509280072615638e-08
0, 36, 7, 1.935001270325643e-09
0, 36, 8, 1.608201571912105e-08
0, 36, 9, 3.979889484639898e-08
0, 37, 0, 1.271864125129696e-08
0, 37, 1, 1.304916175115522e-08
0, 37, 2, 8.103669735248786e-09
0, 37, 3, 4.162124256357203e-10
0, 37, 4, 2.23344436278694e-08
0, 37, 5, 1.411492700498229e-08
0, 37, 6, 2.318907021958694e-08
0, 37, 7, 1.751170231045762e-08
0, 37, 8, 5.474376951752902e-09
0, 37, 9, 1.29766144496557e-08
0, 38, 0, 3.336900178396718e-08
0, 38, 1, 2.637259299831385e-08
0, 38, 2, 1.83690271882142e-08
0, 38, 3, 3.87922982625355e-09
0, 38, 4, 1.753970657603077e-08
0, 38, 5, 1.151509909647075e-08
0, 38, 6, 1.536452387540521e-08
0, 38, 7, 1.363378832053286e-08
0, 38, 8, 3.39290338047249e-08
0, 38, 9, 2.396651943570305e-08
0, 39, 0, 2.951885313962066e-08
0, 39, 1, 1.895449130984161e-08
0, 39, 2, 9.191987615508879e-09
0, 39, 3, 1.907289970404236e-08
0, 39, 4, 2.805014709394982e-08
0, 39, 5, 5.495750077244566e-09
0, 39, 6, 1.268968752299315e-08
0, 39, 7, 1.092858248341599e-08
0, 39, 8, 1.197371002348291e-08
0, 39, 9, 2.973099810787971e-08
0, 40, 0, 6.697147725276409e-09
0, 40, 1, 1.387558423715518e-08
0, 40, 2, 1.180726094673901e-08
0, 40, 3, 3.970036743794481e-09
0, 40, 4, 4.958322641357427e-09
0, 40, 5, 1.359730905647893e-08
0, 40, 6, 9.645733101137921e-09
0, 40, 7, 1.418099149219643e-08
0, 40, 8, 2.763296702568141e-09
0, 40, 9, 3.286084293563363e-08
0, 41, 0, 2.874055482493532e-08
0, 41, 1, 5.368888000845118e-09
0, 41, 2, 1.831432605570171e-08
0, 41, 3, 1.16302256714107e-08
0, 41, 4, 6.93447477218001e-09
0, 41, 5, 6.948627007119512e-09
0, 41, 6, 1.106805225248308e-08
0, 41, 7, 1.418917161544186e-08
0, 41, 8, 1.08671907028679e-08
0, 41, 9, 5.938676217454031e-09
0, 42, 0, 9.167055559089476e-09
0, 42, 1, 1.88851547733293e-08
0, 42, 2, 2.0115580312563e-08
0, 42, 3, 1.635598856353226e-08
0, 42, 4, 7.647345867667354e-09
0, 42, 5, 2.932046383463671e-09
0, 42, 6, 2.218806294251863e-08
0, 42, 7, 1.57771360420611e-08
0, 42, 8, 3.256048231037312e-08
0, 42, 9, 2.020147249481852e-08
0, 43, 0, 9.613694729182498e-09
0, 43, 1, 1.806566096718143e-08
0, 43, 2, 5.88577986349037e-09
0, 43, 3, 2.299330681410083e-08
0, 43, 4, 1.046702902129937e-08
0, 43, 5, 1.590359488545801e-08
0, 43, 6, 6.850373157618606e-09
0, 43, 7, 2.916502372940499e-09
0, 43, 8, 1.886936651374072e-08
0, 43, 9, 1.119799808435573e-08
0, 44, 0, 1.240628222376472e-08
0, 44, 1, 1.305789432137772e-08
0, 44, 2, 3.011790639106948e-08
0, 44, 3, 6.492314685857536e-09
0, 44, 4, 1.067672883436899e-08
0, 44, 5, 1.252160775067068e-08
0, 44, 6, 2.105709739907979e-08
0, 44, 7, 1.827293338863001e-08
0, 44, 8, 1.506657731908945e-08
0, 44, 9, 1.865043408599831e-08
0, 45, 0, 1.704140162317458e-09
0, 45, 1, 8.79172201706524e-09
0, 45, 2, 7.6256485570525e-09
0, 45, 3, 1.870828825190074e-08
0, 45, 4, 5.923609602831448e-09
0, 45, 5, 1.188128173623682e-08
0, 45, 6, 1.111416647603392e-08
0, 45, 7, 1.815490158207922e-08
0, 45, 8, 1.420696538190214e-08
0, 45, 9, 2.094053641599203e-08
0, 46, 0, 3.872658638215398e-09
0, 46, 1, 1.236327840103968e-08
0, 46, 2, 6.792879592154577e-09
0, 46, 3, 1.26498482799775e-08
0, 46, 4, 1.280391970226447e-08
0, 46, 5, 5.731061847313867e-09
0, 46, 6, 3.043943985758801e-09
0, 46, 7, 1.065740917738367e-08
0, 46, 8, 1.065573229652728e-08
0, 46, 9, 5.579132711375223e-09
0, 47, 0, 4.429220989976557e-09
0, 47, 1, 1.000396920858293e-08
0, 47, 2, 2.828945744326461e-09
0, 47, 3, 5.22875653885535e-09
0, 47, 4, 1.459167187078947e-08
0, 47, 5, 5.388202772849127e-09
0, 47, 6, 1.303559660215114e-08
0, 47, 7, 4.873439429786686e-09
0, 47, 8, 1.216740397325111e-08
0, 47, 9, 4.716446344588121e-09
0, 48, 0, 2.838087809209355e-08
0, 48, 1, 1.358127832418177e-08
0, 48, 2, 2.046834701729949e-08
0, 48, 3, 2.077289806834415e-08
0, 48, 4, 4.78634776257536e-09
0, 48, 5, 9.356130981075239e-09
0, 48, 6, 7.304614246805841e-09
0, 48, 7, 1.190572085363328e-08
0, 48, 8, 1.793243953329693e-08
0, 48, 9, 9.558875468940187e-09
0, 49, 0, 7.77898279125111e-09
0, 49, 1, 3.788057867382122e-09
0, 49, 2, 1.374423508337941e-08
0, 49, 3, 4.149869337055634e-09
0, 49, 4, 3.740116216732758e-09
0, 49, 5, 1.321134224241405e-08
0, 49, 6, 1.227242218959645e-08
0, 49, 7, 6.96806212729939e-09
0, 49, 8, 8.683958441224604e-09
0, 49, 9, 6.893154935738721e-09
1, 0, 0, 4.036342815538774e-09
1, 0, 1, 5.723744145313958e-09
1, 0, 2, 1.663826409981084e-08
1, 0, 3, 8.596972023156013e-09
1, 0, 4, 6.69563293698161e-09
1, 0, 5, 1.748013467306464e-08
1, 0, 6, 1.204298616386268e-08
1, 0, 7, 7.932291268275549e-09
1, 0, 8, 2.821215083770312e-08
1, 0, 9, 4.540440023959036e-09
1, 1, 0, 9.15860365324761e-09
1, 1, 1, 7.311445227031754e-09
1, 1, 2, 6.079775793921272e-09
1, 1, 3, 1.621117995398436e-08
1, 1, 4, 8.082620794880313e-09
1, 1, 5, 5.545665260342503e-09
1, 1, 6, 4.359661520680902e-09
1, 1, 7, 1.527893189745555e-08
1, 1, 8, 1.482814138142885e-08
1, 1, 9, 1.438932883957023e-08
1, 2, 0, 5.221794108223321e-09
1, 2, 1, 9.609107287644747e-09
1, 2, 2, 6.228565663235486e-09
1, 2, 3, 1.798232895922069e-09
1, 2, 4, 4.21581125564785e-09
1, 2, 5, 5.808093117565249e-09
1, 2, 6, 1.798687421228351e-08
1, 2, 7, 2.184320635478798e-08
1, 2, 8, 2.399023868449035e-09
1, 2, 9, 1.591268272704838e-08
1, 3, 0, 2.247494990115229e-08
1, 3, 1, 1.29803927606531e-08
1, 3, 2, 9.7230392626102e-09
1, 3, 3, 1.048754061372392e-08
1, 3, 4, 7.763678588901257e-09
1, 3, 5, 1.316237874249282e-08
1, 3, 6, 1.119563020068881e-08
1, 3, 7, 7.320548167655261e-09
1, 3, 8, 5.502530875389766e-09
1, 3, 9, 2.273198074220772e-09
1, 4, 0, 1.678795058523974e-08
1, 4, 1, 3.304134210679877e-08
1, 4, 2, 7.733645723817517e-09
1, 4, 3, 1.0880711442951e-08
1, 4, 4, 1.160041041003979e-08
1, 4, 5, 1.531001814214505e-08
1, 4, 6, 6.590833212527514e-09
1, 4, 7, 3.884414123689339e-09
1, 4, 8, 1.194021503891918e-08
1, 4, 9, 7.646896449386986e-09
1, 5, 0, 4.568751155176187e-09
1, 5, 1, 1.776368918626758e-08
1, 5, 2, 1.896418666547106e-08
1, 5, 3, 1.598385779288947e-08
1, 5, 4, 5.744537290297558e-09
1, 5, 5, 6.932826313033047e-09
1, 5, 6, 1.215173117685708e-08
1, 5, 7, 1.721057785175617e-08
1, 5, 8, 3.249245317249461e-09
1, 5, 9, 4.578838197488722e-09
1, 6, 0, 1.239226765648027e-08
1, 6, 1, 1.236955338157486e-08
1, 6, 2, 9.629987474113477e-09
1, 6, 3, 1.223139367567683e-08
1, 6, 4, 1.562732165893976e-08
1, 6, 5, 1.834792584531897e-08
1, 6, 6, 1.713894448585052e-08
1, 6, 7, 5.97510840805171e-09
1, 6, 8, 7.513205169118464e-09
1, 6, 9, 2.482985017593364e-08
1, 7, 0, 7.122151757243955e-09
1, 7, 1, 5.369788169673484e-09
1, 7, 2, 2.813746391439054e-08
1, 7, 3, 3.038624640794296e-08
1, 7, 4, 1.265874161049396e-08
1, 7, 5, 1.253429360303926e-08
1, 7, 6, 9.491650132531504e-09
1, 7, 7, 1.658968074025324e-08
1, 7, 8, 1.028523044510621e-08
1, 7, 9, 6.900819027322314e-09
1, 8, 0, 6.694088838798962e-09
1, 8, 1, 1.038326935542955e-08
1, 8, 2, 2.202901150383241e-08
1, 8, 3, 8.350264479872749e-09
1, 8, 4, 6.826423870620602e-09
1, 8, 5, 1.385134495990314e-08
1, 8, 6, 1.431582052902058e-08
1, 8, 7, 4.289933741574714e-09
1, 8, 8, 2.346171612543912e-08
1, 8, 9, 8.548738605895778e-09
1, 9, 0, 8.353689295859112e-09
1, 9, 1, 3.066908860205331e-08
1, 9, 2, 2.095736029161799e-08
1, 9, 3, 2.111534236348689e-08
1, 9, 4, 1.177326236501131e-08
1, 9, 5, 1.47603493871884e-08
1, 9, 6, 5.309617634452479e-09
1, 9, 7, 3.37200112277003e-09
1, 9, 8, 2.205993254733585e-08
1, 9, 9, 2.163561951817883e-08
1, 10, 0, 5.363531396795906e-09
1, 10, 1, 1.678736794019642e-08
1, 10, 2, 3.680397497873855e-08
1, 10, 3, 2.294356171717027e-08
1, 10, 4, 1.976530050740166e-08
1, 10, 5, 9.839225434404852e-09
1, 10, 6, 7.916653999018308e-09
1, 10, 7, 1.090442580675699e-08
1, 10, 8, 5.474318331977202e-09
1, 10, 9, 2.113282526750027e-08
1, 11, 0, 7.278976532631987e-09
1, 11, 1, 2.726281245202244e-08
1, 11, 2, 2.401898058224106e-08
1, 11, 3, 1.597571519518226e-09
1, 11, 4, 5.000682978817395e-09
1, 11, 5, 1.60944075844327e-08
1, 11, 6, 1.962163587165833e-08
1, 11, 7, 1.113668268715173e-08
1, 11, 8, 3.764039746556591e-08
1, 11, 9, 1.023703521951802e-08
1, 12, 0, 1.163882057397814e-08
1, 12, 1, 1.606216848415443e-08
1, 12, 2, 2.763867712474166e-08
1, 12, 3, 1.110637093404421e-08
1, 12, 4, 6.445636024920987e-09
1, 12, 5, 1.530076332301178e-08
1, 12, 6, 1.754746037363475e-08
1, 12, 7, 8.003544493817571e-09
1, 12, 8, 1.54669113072714e-08
1, 12, 9, 2.035324797589055e-08
1, 13, 0, 9.811375711876735e-09
1, 13, 1, 8.844358134751928e-09
1, 13, 2, 2.786142871968877e-08
1, 13, 3, 2.295509915484217e-08
1, 13, 4, 1.887032219372031e-08
1, 13, 5, 2.198857629309714e-08
1, 13, 6, 1.425115758735274e-08
1, 13, 7, 1.546854733192049e-08
1, 13, 8, 2.382564012748389e-08
1, 13, 9, 1.466929333560074e-08
1, 14, 0, 1.550652939386055e-08
1, 14, 1, 1.586416509269384e-08
1, 14, 2, 3.580758134447137e-09
1, 14, 3, 1.478767863716257e-08
1, 14, 4, 7.061636164706897e-09
1, 14, 5, 2.074126115303443e-08
1, 14, 6, 1.380632053127329e-08
1, 14, 7, 1.536034233140526e-08
1, 14, 8, 8.37866487302108e-09
1, 14, 9, 1.213414524414702e-08
1, 15, 0, 2.617902161716756e-08
1, 15, 1, 2.96867197491224e-09
1, 15, 2, 1.183409370497657e-08
1, 15, 3, 2.431334955588227e-08
1, 15, 4, 1.636723467868251e-08
1, 15, 5, 2.775807494970195e-08
1, 15, 6, 1.885610956264827e-08
1, 15, 7, 9.391902366928662e-09
1, 15, 8, 3.087587430172789e-08
1, 15, 9, 2.675167465326922e-08
1, 16, 0, 4.778653028836288e-09
1, 16, 1, 1.889507039720684e-08
1, 16, 2, 1.669083005140237e-08
1, 16, 3, 2.154010303456744e-08
1, 16, 4, 1.224390988596724e-08
1, 16, 5, 1.433168783648853e-08
1, 16, 6, 2.384122410603595e-08
1, 16, 7, 3.477164511878073e-08
1, 16, 8, 1.47921026538711e-08
1, 16, 9, 1.629251933366049e-08
1, 17, 0, 1.419102790833904e-08
1, 17, 1, 1.482009537312479e-08
1, 17, 2, 2.139558574754119e-08
1, 17, 3, 1.14596874212225e-08
1, 17, 4, 2.894691419896844e-08
1, 17, 5, 9.823329705227479e-09
1, 17, 6, 3.374601220684781e-08
1, 17, 7, 1.109307845581498e-08
1, 17, 8, 1.760622758695263e-08
1, 17, 9, 9.301818870710576e-09
1, 18, 0, 1.536709604010866e-08
1, 18, 1, 1.373954994221549e-08
1, 18, 2, 2.19106226495569e-08
1, 18, 3, 1.004692151695963e-08
1, 18, 4, 3.531008374579869e-08
1, 18, 5, 2.537324839124722e-08
1, 18, 6, 1.894763279608469e-08
1, 18, 7, 1.362408852401131e-08
1, 18, 8, 2.842481805487296e-08
1, 18, 9, 7.821934211449388e-09
1, 19, 0, 9.94428983602802e-09
1, 19, 1, 2.506776342059425e-09
1, 19, 2, 1.831131335450209e-08
1, 19, 3, 2.490091866036437e-08
1, 19, 4, 2.305510982125725e-08
1, 19, 5, 1.093476331703869e-08
1, 19, 6, 1.169435392966989e-08
1, 19, 7, 2.058786385816802e-08
1, 19, 8, 1.669894267308791e-08
1, 19, 9, 2.343371008350914e-08
1, 20, 0, 9.23282694742511e-09
1, 20, 1, 1.872078492226592e-08
1, 20, 2, 1.236305990914843e-08
1, 20, 3, 2.499895046526035e-08
1, 20, 4, 2.421156786169831e-08
1, 20, 5, 2.367775664424698e-08
1, 20, 6, 1.730709797698182e-08
1, 20, 7, 5.409751935303575e-08
1, 20, 8, 2.271178090040848e-08
1, 20, 9, 1.707381969140442e-08
1, 21, 0, 3.748435162265196e-08
1, 21, 1, 2.003703869490892e-08
1, 21, 2, 1.95142693115713e-08
1, 21, 3, 1.833166329845426e-08
1, 21, 4, 1.052540543611258e-08
1, 21, 5, 2.796695497409019e-08
1, 21, 6, 4.35781792873513e-08
1, 21, 7, 2.248928687720309e-08
1, 21, 8, 2.127098674975514e-08
1, 21, 9, 1.495205737001015e-08
1, 22, 0, 2.024783896104054e-08
1, 22, 1, 1.598570520400244e-08
1, 22, 2, 2.701322010523199e-08
1, 22, 3, 2.111194241649628e-08
1, 22, 4, 2.667062304340106e-08
1, 22, 5, 1.536092852916227e-08
1, 22, 6, 2.165592150049633e-08
1, 22, 7, 2.609401050790439e-08
1, 22, 8, 1.818309591783418e-08
1, 22, 9, 1.946235528293982e-08
1, 23, 0, 1.994456688692026e-08
1, 23, 1, 1.905087643194747e-08
1, 23, 2, 1.641775249083821e-08
1, 23, 3, 2.060511405943544e-08
1, 23, 4, 3.591508246358899e-08
1, 23, 5, 2.068914284336643e-08
1, 23, 6, 3.433704520716674e-08
1, 23, 7, 1.131913052176969e-08
1, 23, 8, 3.54104656707932e-08
1, 23, 9, 1.547976680171814e-08
1, 24, 0, 2.084157735282588e-08
1, 24, 1, 1.456451492742872e-08
1, 24, 2, 5.848796114094057e-09
1, 24, 3, 1.389001269558321e-08
1, 24, 4, 7.235129384497441e-09
1, 24, 5, 1.325871501478559e-08
1, 24, 6, 1.967022456028644e-08
1, 24, 7, 5.086442200763486e-08
1, 24, 8, 1.94330986857949e-08
1, 24, 9, 1.660833248706695e-08
1, 25, 0, 1.762010271022518e-08
1, 25, 1, 8.707864651569253e-09
1, 25, 2, 5.026986116263288e-08
1, 25, 3, 1.620623635290031e-08
1, 25, 4, 1.8756576736223e-08
1, 25, 5, 1.401260352196232e-08
1, 25, 6, 3.013234817217381e-08
1, 25, 7, 2.299946011419252e-08
1, 25, 8, 3.519975777521722e-08
1, 25, 9, 2.879584748427533e-08
1, 26, 0, 1.567597784912778e-08
1, 26, 1, 2.950093325182479e-08
1, 26, 2, 9.622092456140763e-09
1, 26, 3, 9.352579155574858e-09
1, 26, 4, 2.968700840710881e-08
1, 26, 5, 2.377278107701386e-08
1, 26, 6, 2.272143184711695e-08
1, 26, 7, 2.547022148746692e-08
1, 26, 8, 2.17931042101327e-08
1, 26, 9, 1.707722674382239e-08
1, 27, 0, 6.902070470715671e-09
1, 27, 1, 1.043760722296838e-08
1, 27, 2, 2.732726755994008e-08
1, 27, 3, 1.536807658908401e-08
1, 27, 4, 1.429616336423578e-08
1, 27, 5, 1.92690077227553e-08
1, 27, 6, 2.179267255542072e-08
1, 27, 7, 2.539860233241598e-08
1, 27, 8, 2.287620937124757e-08
1, 27, 9, 1.77430319325822e-08
1, 28, 0, 2.073914373568186e-08
1, 28, 1, 1.146926287276528e-08
1, 28, 2, 2.992583247873881e-08
1, 28, 3, 1.414430172985703e-08
1, 28, 4, 2.099638685137961e-08
1, 28, 5, 1.874821542457994e-08
1, 28, 6, 2.480049943187623e-08
1, 28, 7, 3.716348828675109e-08
1, 28, 8, 7.758090170284504e-09
1, 28, 9, 1.223284051832252e-08
1, 29, 0, 9.834023373400669e-09
1, 29, 1, 2.374141061523005e-08
1, 29, 2, 3.160008077429666e-08
1, 29, 3, 1.137692784425326e-08
1, 29, 4, 2.008567534517169e-08
1, 29, 5, 9.08787622933005e-09
1, 29, 6, 1.77851369187465e-08
1, 29, 7, 1.72686664967614e-08
1, 29, 8, 1.666975713021657e-08
1, 29, 9, 1.538514737831065e-08
1, 30, 0, 1.800708915311588e-08
1, 30, 1, 1.674062843903812e-08
1, 30, 2, 2.447433899988027e-08
1, 30, 3, 1.789357462200769e-08
1, 30, 4, 1.800784410477263e-08
1, 30, 5, 2.783921004834156e-08
1, 30, 6, 2.239941210291363e-08
1, 30, 7, 1.271268157410077e-08
1, 30, 8, 2.198313175938438e-08
1, 30, 9, 2.933240317304353e-08
1, 31, 0, 1.167097885002022e-08
1, 31, 1, 8.326317413320794e-09
1, 31, 2, 3.416247551513152e-08
1, 31, 3, 2.104416196857528e-08
1, 31, 4, 1.731315535380418e-08
1, 31, 5, 8.499697834452036e-09
1, 31, 6, 3.392775616006816e-09
1, 31, 7, 1.794525061882268e-08
1, 31, 8, 1.260120630064421e-08
1, 31, 9, 1.399566151860654e-08
1, 32, 0, 7.400035695326324e-09
1, 32, 1, 1.824841966424628e-08
1, 32, 2, 2.97176612207295e-08
1, 32, 3, 2.649294117418322e-08
1, 32, 4, 1.114573322524848e-08
1, 32, 5, 1.948532890594379e-08
1, 32, 6, 9.41112965335833e-09
1, 32, 7, 2.646724972521497e-08
1, 32, 8, 2.177431213112868e-08
1, 32, 9, 1.850023600979966e-08
1, 33, 0, 1.935518589846197e-08
1, 33, 1, 2.314344982323746e-08
1, 33, 2, 1.621869216705818e-08
1, 33, 3, 8.217854841063854e-09
1, 33, 4, 2.434595458566946e-08
1, 33, 5, 3.081147781358595e-08
1, 33, 6, 8.845293386627873e-09
1, 33, 7, 1.60366084855923e-08
1, 33, 8, 1.554495909772413e-08
1, 33, 9, 7.263557311176783e-09
1, 34, 0, 1.093939516749742e-08
1, 34, 1, 2.8669459695152e-08
1, 34, 2, 1.701157081868132e-08
1, 34, 3, 8.472332169162655e-09
1, 34, 4, 8.389058336888411e-09
1, 34, 5, 1.252769799009457e-08
1, 34, 6, 3.651035029861305e-08
1, 34, 7, 1.125724846673393e-08
1, 34, 8, 1.789980608180031e-08
1, 34, 9, 1.030143081948154e-08
1, 35, 0, 1.271399163726983e-08
1, 35, 1, 2.716136426883509e-09
1, 35, 2, 1.301372876127971e-08
1, 35, 3, 4.75850692183144e-09
1, 35, 4, 7.425760895074518e-09
1, 35, 5, 3.214119814742844e-08
1, 35, 6, 2.177521629675994e-08
1, 35, 7, 2.746376104312276e-08
1, 35, 8, 2.284550681963537e-08
1, 35, 9, 5.004312519929499e-09
1, 36, 0, 1.448147646243569e-08
1, 36, 1, 1.510401226312297e-08
1, 36, 2, 8.651634963996457e-09
1, 36, 3, 2.631730744440119e-08
1, 36, 4, 3.175099649865842e-08
1, 36, 5, 7.628575993123832e-09
1, 36, 6, 3.994991359945743e-08
1, 36, 7, 3.299669870671096e-08
1, 36, 8, 1.776152203092352e-08
1, 36, 9, 1.389294457254664e-08
1, 37, 0, 1.258450410546175e-08
1, 37, 1, 1.625521051096257e-08
1, 37, 2, 1.078753086858342e-08
1, 37, 3, 2.268449073028478e-08
1, 37, 4, 2.962378431448087e-08
1, 37, 5, 2.279575461727745e-08
1, 37, 6, 1.510213287758688e-08
1, 37, 7, 1.590490761316232e-08
1, 37, 8, 1.438621310967392e-08
1, 37, 9, 1.420863071643907e-08
1, 38, 0, 2.117819697389223e-08
1, 38, 1, 1.475796285177466e-08
1, 38, 2, 2.335217530458067e-08
1, 38, 3, 2.618753391914197e-08
1, 38, 4, 2.714408786630429e-08
1, 38, 5, 1.550061057287166e-08
1, 38, 6, 1.295654694644099e-08
1, 38, 7, 2.85873689165328e-08
1, 38, 8, 3.236851853216649e-08
1, 38, 9, 1.507316760296362e-08
1, 39, 0, 3.503861645270945e-09
1, 39, 1, 9.069426099017619e-09
1, 39, 2, 7.648269573223843e-09
1, 39, 3, 1.489322887238131e-08
1, 39, 4, 6.680298536565488e-09
1, 39, 5, 8.067987167237334e-09
1, 39, 6, 8.356468406134354e-09
1, 39, 7, 5.331576957701145e-09
1, 39, 8, 2.38711628242072e-08
1, 39, 9, 6.245091999090846e-09
1, 40, 0, 2.185090153261626e-08
1, 40, 1, 1.82632309275732e-08
1, 40, 2, 1.661744697400991e-08
1, 40, 3, 1.913162428479609e-08
1, 40, 4, 7.782140265533144e-09
1, 40, 5, 1.913796232599907e-08
1, 40, 6, 2.238319929404042e-08
1, 40, 7, 1.538589522454004e-08
1, 40, 8, 7.894678688558088e-09
1, 40, 9, 1.57878030648817e-08
1, 41, 0, 1.689051565278987e-08
1, 41, 1, 1.150201001109963e-08
1, 41, 2, 2.374138219352062e-08
1, 41, 3, 1.4954647298282e-08
1, 41, 4, 6.983041700436843e-09
1, 41, 5, 2.65683812727957e-08
1, 41, 6, 9.840474213262951e-09
1, 41, 7, 2.815440858228158e-08
1, 41, 8, 2.533410459193419e-08
1, 41, 9, 7.890433195711921e-09
1, 42, 0, 1.539368099656713e-08
1, 42, 1, 3.790511016177334e-09
1, 42, 2, 1.846336417088423e-08
1, 42, 3, 8.258190575816116e-09
1, 42, 4, 1.058989340663175e-08
1, 42, 5, 1.422385431659734e-09
1, 42, 6, 1.49200989341125e-08
1, 42, 7, 2.036373381031353e-08
1, 42, 8, 1.183828857165281e-08
1, 42, 9, 3.072135612569582e-08
1, 43, 0, 2.313309899193428e-08
1, 43, 1, 1.292050555434798e-08
1, 43, 2, 2.141565147439906e-08
1, 43, 3, 1.984724740111687e-08
1, 43, 4, 3.658936487127562e-09
1, 43, 5, 1.982523123444935e-08
1, 43, 6, 2.110607688621258e-08
1, 43, 7, 1.657891779416332e-08
1, 43, 8, 1.843172015014716e-08
1, 43, 9, 5.306939332427874e-09
1, 44, 0, 1.252982162469607e-08
