# TOPAS Version: 3.7
# Parameter File: RunWaterDose.txt
# Results for scorer TestingDose1
# Scored in component: Phantom
# X in 50 bins of 0.2 cm
# Y in 50 bins of 0.2 cm
# Z in 50 bins of 0.2 cm
# DoseToMedium ( Gy ) : Sum   
0, 0, 0, 2.359587636391325e-09
0, 0, 1, 2.620519801155297e-09
0, 0, 2, 1.196148291526811e-09
0, 0, 3, 3.792413938441541e-09
0, 0, 4, 7.263349033337363e-09
0, 0, 5, 3.018261862663962e-09
0, 0, 6, 2.721421310525329e-09
0, 0, 7, 4.430282807277308e-09
0, 0, 8, 2.184487035705729e-09
0, 0, 9, 3.442778062634488e-09
0, 0, 10, 8.151070041151343e-09
0, 0, 11, 1.849588815439063e-09
0, 0, 12, 5.245334389059053e-09
0, 0, 13, 2.897701856241497e-09
0, 0, 14, 2.57820054194724e-09
0, 0, 15, 1.429021234677919e-09
0, 0, 16, 1.427664986231036e-09
0, 0, 17, 1.621908940485639e-09
0, 0, 18, 3.025153016977811e-09
0, 0, 19, 3.400941306352934e-09
0, 0, 20, 3.177396123987819e-09
0, 0, 21, 2.121284481404473e-09
0, 0, 22, 2.60337551516443e-09
0, 0, 23, 2.946546118209881e-09
0, 0, 24, 2.263003118230245e-09
0, 0, 25, 2.56147947297336e-09
0, 0, 26, 2.591222569847673e-09
0, 0, 27, 5.91326543286641e-10
0, 0, 28, 1.758783785277274e-09
0, 0, 29, 5.025652782819634e-09
0, 0, 30, 1.566563323507353e-09
0, 0, 31, 2.339242133331254e-09
0, 0, 32, 4.526488073253176e-09
0, 0, 33, 1.280157757577172e-09
0, 0, 34, 5.075030173884443e-09
0, 0, 35, 6.071356306591724e-09
0, 0, 36, 4.741900205829097e-09
0, 0, 37, 1.963098794632856e-09
0, 0, 38, 4.13003631294373e-09
0, 0, 39, 1.783877046079851e-09
0, 0, 40, 1.942480842842542e-09
0, 0, 41, 3.188410646615125e-09
0, 0, 42, 3.254398084351351e-09
0, 0, 43, 3.286394267831838e-09
0, 0, 44, 3.460564057533588e-09
0, 0, 45, 3.614806676210947e-09
0, 0, 46, 2.250688524441102e-09
0, 0, 47, 2.304678226039414e-09
0, 0, 48, 1.506928803962637e-09
0, 0, 49, 2.59690491333231e-09
0, 1, 0, 2.633032680776637e-09
0, 1, 1, 2.226300699348371e-09
0, 1, 2, 2.723680170291232e-09
0, 1, 3, 2.673531840358123e-09
0, 1, 4, 1.548791872529875e-09
0, 1, 5, 1.53096368915584e-09
0, 1, 6, 2.560717637933863e-09
0, 1, 7, 1.075363020852649e-09
0, 1, 8, 1.998381904400048e-09
0, 1, 9, 2.943767452023849e-09
0, 1, 10, 3.131058523564434e-09
0, 1, 11, 2.03495531536646e-09
0, 1, 12, 2.995067527322703e-09
0, 1, 13, 1.77906056553212e-09
0, 1, 14, 4.189073532501197e-09
0, 1, 15, 1.63494440208467e-09
0, 1, 16, 6.905920724165071e-09
0, 1, 17, 3.876095000521218e-09
0, 1, 18, 1.550886086221226e-09
0, 1, 19, 2.211858252110233e-09
0, 1, 20, 2.224210149393002e-09
0, 1, 21, 2.984247959858521e-09
0, 1, 22, 2.728285819486587e-09
0, 1, 23, 3.25891869046302e-09
0, 1, 24, 4.571135470143872e-09
0, 1, 25, 5.161995275670961e-09
0, 1, 26, 4.181826884774864e-09
0, 1, 27, 5.757071264156366e-09
0, 1, 28, 1.982562558566769e-09
0, 1, 29, 2.759771522420351e-09
0, 1, 30, 3.134671633375774e-09
0, 1, 31, 2.866751502850207e-09
0, 1, 32, 4.38854463880034e-09
0, 1, 33, 3.951808213997765e-09
0, 1, 34, 3.548827676169708e-09
0, 1, 35, 1.830802842661683e-09
0, 1, 36, 3.621111632767793e-09
0, 1, 37, 2.586858505182477e-09
0, 1, 38, 1.569373409004982e-09
0, 1, 39, 4.580656298713848e-09
0, 1, 40, 2.97767677182037e-09
0, 1, 41, 2.410474708725019e-09
0, 1, 42, 2.000170695737324e-09
0, 1, 43, 2.194955550649524e-09
0, 1, 44, 9.491302188635586e-10
0, 1, 45, 3.76273945335015e-09
0, 1, 46, 9.216001850553823e-10
0, 1, 47, 4.067734149515445e-09
0, 1, 48, 1.841289676285385e-09
0, 1, 49, 2.141568478108979e-09
0, 2, 0, 2.631928452956345e-09
0, 2, 1, 1.481793909796636e-09
0, 2, 2, 1.098400037591318e-09
0, 2, 3, 2.704241941486885e-09
0, 2, 4, 4.232008965487921e-09
0, 2, 5, 3.50895512646332e-09
0, 2, 6, 3.090725897436641e-09
0, 2, 7, 2.254317177374787e-09
0, 2, 8, 4.959221922007373e-09
0, 2, 9, 2.575768265344891e-09
0, 2, 10, 3.877523635509306e-09
0, 2, 11, 3.118526326062465e-09
0, 2, 12, 2.644133578755259e-09
0, 2, 13, 5.664670954530493e-09
0, 2, 14, 2.295081680259159e-09
0, 2, 15, 2.754560357587366e-09
0, 2, 16, 4.625236194044646e-09
0, 2, 17, 4.293592148485459e-09
0, 2, 18, 5.407246650435127e-09
0, 2, 19, 5.498392408043173e-09
0, 2, 20, 4.575236633996838e-09
0, 2, 21, 3.252214497706518e-09
0, 2, 22, 3.244023494275439e-09
0, 2, 23, 2.544383148617158e-09
0, 2, 24, 2.593845360721048e-09
0, 2, 25, 7.798023560212641e-09
0, 2, 26, 5.149103809998223e-09
0, 2, 27, 5.952106363338316e-09
0, 2, 28, 3.728426012372665e-09
0, 2, 29, 3.789120128772083e-09
0, 2, 30, 1.850554598448184e-09
0, 2, 31, 2.558107947692179e-09
0, 2, 32, 2.141401500566076e-09
0, 2, 33, 4.644443940549081e-09
0, 2, 34, 3.053256092400147e-09
0, 2, 35, 3.364678757833417e-09
0, 2, 36, 5.315807349859369e-09
0, 2, 37, 4.582472179492925e-09
0, 2, 38, 5.140142977921869e-09
0, 2, 39, 3.885451960172759e-09
0, 2, 40, 2.566890922039988e-09
0, 2, 41, 4.110170870319507e-09
0, 2, 42, 8.94572083076639e-10
0, 2, 43, 5.01420327481128e-09
0, 2, 44, 4.171340606262675e-09
0, 2, 45, 3.067132769984937e-09
0, 2, 46, 2.245454711058414e-09
0, 2, 47, 4.38996661245028e-09
0, 2, 48, 4.818261789552025e-09
0, 2, 49, 1.766070290010191e-09
0, 3, 0, 1.90925453225077e-09
0, 3, 1, 2.067898074997743e-09
0, 3, 2, 2.216064221016723e-09
0, 3, 3, 4.803109465711941e-09
0, 3, 4, 2.146323563323449e-09
0, 3, 5, 2.038120339165062e-09
0, 3, 6, 4.232834971418242e-09
0, 3, 7, 5.176590267552683e-09
0, 3, 8, 5.323673502033444e-09
0, 3, 9, 2.032256585238201e-09
0, 3, 10, 3.466212206149066e-09
0, 3, 11, 1.528855486654379e-09
0, 3, 12, 1.768348356634419e-09
0, 3, 13, 5.199389807586385e-09
0, 3, 14, 5.967776939286296e-09
0, 3, 15, 4.330453773349063e-09
0, 3, 16, 5.755732335188668e-09
0, 3, 17, 4.290696242748027e-09
0, 3, 18, 1.775285474181487e-09
0, 3, 19, 3.012807781033189e-09
0, 3, 20, 6.542146824273232e-09
0, 3, 21, 4.181667012659318e-09
0, 3, 22, 3.589663677416866e-09
0, 3, 23, 4.67092631240007e-09
0, 3, 24, 3.856487573727918e-09
0, 3, 25, 7.094103082749825e-09
0, 3, 26, 3.797328673726952e-09
0, 3, 27, 3.000560022670129e-09
0, 3, 28, 6.060167034860342e-09
0, 3, 29, 4.518497132011134e-09
0, 3, 30, 5.081295828546217e-09
0, 3, 31, 6.779015571112268e-09
0, 3, 32, 4.5775974122364e-09
0, 3, 33, 4.041084356032343e-09
0, 3, 34, 2.551855393662095e-09
0, 3, 35, 3.378604063186685e-09
0, 3, 36, 2.033986534755172e-09
0, 3, 37, 2.541037602554752e-09
0, 3, 38, 4.010745957572226e-09
0, 3, 39, 3.073783894080862e-09
0, 3, 40, 1.932687565542324e-09
0, 3, 41, 1.885543277069246e-09
0, 3, 42, 2.086165240555715e-09
0, 3, 43, 2.662994047497591e-09
0, 3, 44, 1.62634983258414e-09
0, 3, 45, 1.924121972862736e-09
0, 3, 46, 2.069441951135786e-09
0, 3, 47, 1.991545817148221e-09
0, 3, 48, 3.937647985452486e-09
0, 3, 49, 1.706757291053407e-09
0, 4, 0, 1.110091241152134e-09
0, 4, 1, 3.806942316941786e-09
0, 4, 2, 4.514143725486974e-09
0, 4, 3, 5.660568902499108e-09
0, 4, 4, 2.870960580381166e-09
0, 4, 5, 4.486262472624958e-09
0, 4, 6, 2.268089938084472e-09
0, 4, 7, 1.989896247778233e-09
0, 4, 8, 1.973598173776736e-09
0, 4, 9, 4.672934927896222e-09
0, 4, 10, 3.38101768804222e-09
0, 4, 11, 3.566005268851313e-09
0, 4, 12, 2.403820920093835e-09
0, 4, 13, 4.325188207587871e-09
0, 4, 14, 3.80429332480503e-09
0, 4, 15, 3.945971105423496e-09
0, 4, 16, 6.411195574429485e-09
0, 4, 17, 2.934760212625065e-09
0, 4, 18, 4.23100576796287e-09
0, 4, 19, 4.987025903346876e-09
0, 4, 20, 4.816803844676087e-09
0, 4, 21, 4.454987045932057e-09
0, 4, 22, 2.717289948606094e-09
0, 4, 23, 6.155191911716429e-09
0, 4, 24, 2.501744145178009e-09
0, 4, 25, 6.202232949448216e-09
0, 4, 26, 3.216484190105007e-09
0, 4, 27, 3.940941795121944e-09
0, 4, 28, 3.9602046086884e-09
0, 4, 29, 5.617048159933802e-09
0, 4, 30, 4.989464841287372e-09
0, 4, 31, 2.683139488368624e-09
0, 4, 32, 2.813580257665649e-09
0, 4, 33, 4.257948660324473e-09
0, 4, 34, 9.825009250619132e-09
0, 4, 35, 4.326570213208925e-09
0, 4, 36, 2.796475051525249e-09
0, 4, 37, 3.65740260299674e-09
0, 4, 38, 6.120311812907175e-09
0, 4, 39, 5.304096273306413e-09
0, 4, 40, 4.614927551216397e-09
0, 4, 41, 2.549695121700779e-09
0, 4, 42, 2.986080049893758e-09
0, 4, 43, 2.934466669657354e-09
0, 4, 44, 5.125365465374898e-09
0, 4, 45, 2.992858849637514e-09
0, 4, 46, 2.839976032120717e-09
0, 4, 47, 2.529345843882425e-09
0, 4, 48, 1.741038757607782e-09
0, 4, 49, 2.327047221584166e-09
0, 5, 0, 4.165463973748729e-09
0, 5, 1, 3.30013261162776e-09
0, 5, 2, 1.716235709103842e-09
0, 5, 3, 2.273939703201222e-09
0, 5, 4, 3.36123484601103e-09
0, 5, 5, 3.762123501616088e-09
0, 5, 6, 3.026671802075498e-09
0, 5, 7, 5.928465718341158e-09
0, 5, 8, 5.046734141700426e-09
0, 5, 9, 1.971971030911845e-09
0, 5, 10, 4.033112954715534e-09
0, 5, 11, 4.395025232639682e-09
0, 5, 12, 4.903248473908661e-09
0, 5, 13, 1.776482072557428e-09
0, 5, 14, 3.808236392899289e-09
0, 5, 15, 6.781120109877747e-09
0, 5, 16, 3.170527618223673e-09
0, 5, 17, 4.051701196772228e-09
0, 5, 18, 2.686709077437399e-09
0, 5, 19, 1.906375057814103e-09
0, 5, 20, 4.43327019539197e-09
0, 5, 21, 7.789568101657096e-09
0, 5, 22, 4.358769345458313e-09
0, 5, 23, 4.762686245385339e-09
0, 5, 24, 5.041158157581549e-09
0, 5, 25, 7.181416350476866e-09
0, 5, 26, 3.526693381772361e-09
0, 5, 27, 3.301210416140066e-09
0, 5, 28, 2.773549168111344e-09
0, 5, 29, 5.293025573394061e-09
0, 5, 30, 2.437035018232336e-09
0, 5, 31, 3.984915508681297e-09
0, 5, 32, 4.013715582118493e-09
0, 5, 33, 1.750174116743608e-09
0, 5, 34, 9.058399363937042e-09
0, 5, 35, 3.065806719604325e-09
0, 5, 36, 4.825194022117785e-09
0, 5, 37, 3.508524359929766e-09
0, 5, 38, 2.887583061550458e-09
0, 5, 39, 6.095564497599071e-09
0, 5, 40, 4.943068621088287e-09
0, 5, 41, 3.703664486209846e-09
0, 5, 42, 4.736691927575976e-09
0, 5, 43, 3.63335161956968e-09
0, 5, 44, 1.993122333843189e-09
0, 5, 45, 5.911767964050796e-09
0, 5, 46, 3.154993599707723e-09
0, 5, 47, 2.227587669878517e-09
0, 5, 48, 5.099657141016678e-09
0, 5, 49, 2.224843864695458e-09
0, 6, 0, 3.372773615950564e-09
0, 6, 1, 2.988296943229329e-09
0, 6, 2, 4.103348327788581e-09
0, 6, 3, 1.421534889800569e-09
0, 6, 4, 3.917671076436591e-09
0, 6, 5, 3.943661841532276e-09
0, 6, 6, 2.496899575987754e-09
0, 6, 7, 4.877921178092492e-09
0, 6, 8, 3.768445999696723e-09
0, 6, 9, 4.590420932260031e-09
0, 6, 10, 2.224969986031056e-09
0, 6, 11, 8.128113293537353e-09
0, 6, 12, 2.752568839525793e-09
0, 6, 13, 6.650576089839433e-09
0, 6, 14, 4.233321249103028e-09
0, 6, 15, 5.253508295055553e-09
0, 6, 16, 8.185425670603763e-09
0, 6, 17, 5.367120525789915e-09
0, 6, 18, 4.520505303418076e-09
0, 6, 19, 5.680561798726558e-09
0, 6, 20, 5.743158393300973e-09
0, 6, 21, 2.861940240350691e-09
0, 6, 22, 6.09544947849372e-09
0, 6, 23, 5.735531161121799e-09
0, 6, 24, 3.224121858380613e-09
0, 6, 25, 5.286234117107824e-09
0, 6, 26, 5.748195253119093e-09
0, 6, 27, 6.642006944446166e-09
0, 6, 28, 4.968947919792299e-09
0, 6, 29, 4.494482563899282e-09
0, 6, 30, 6.391230655822255e-09
0, 6, 31, 4.185681135027153e-09
0, 6, 32, 5.702136096630284e-09
0, 6, 33, 2.879473326444781e-09
0, 6, 34, 4.602037417811289e-09
0, 6, 35, 3.469069920214451e-09
0, 6, 36, 6.676687647200197e-09
0, 6, 37, 6.921204942500481e-09
0, 6, 38, 3.886506672046153e-09
0, 6, 39, 7.445931426985908e-09
0, 6, 40, 3.468587417287949e-09
0, 6, 41, 4.252356244904831e-09
0, 6, 42, 2.239549212745828e-09
0, 6, 43, 5.138193870379837e-09
0, 6, 44, 2.483503624972627e-09
0, 6, 45, 4.527990427050099e-09
0, 6, 46, 2.385741826316234e-09
0, 6, 47, 4.174023793268589e-09
0, 6, 48, 3.334159615064891e-09
0, 6, 49, 2.126735010321568e-09
0, 7, 0, 1.323118059559647e-09
0, 7, 1, 3.927735470199423e-09
0, 7, 2, 4.365189099075906e-09
0, 7, 3, 1.990348108549256e-09
0, 7, 4, 2.851867852982082e-09
0, 7, 5, 3.807874904282471e-09
0, 7, 6, 4.789503904589765e-09
0, 7, 7, 2.172233948272151e-09
0, 7, 8, 3.607126819460404e-09
0, 7, 9, 4.326671021459561e-09
0, 7, 10, 8.911239746112187e-09
0, 7, 11, 2.298373935616382e-09
0, 7, 12, 3.229698508633305e-09
0, 7, 13, 5.008994108379738e-09
0, 7, 14, 4.089516281169381e-09
0, 7, 15, 5.087318122320994e-09
0, 7, 16, 3.427611305895084e-09
0, 7, 17, 6.153043852208384e-09
0, 7, 18, 7.210201768970137e-09
0, 7, 19, 5.032934957682755e-09
0, 7, 20, 3.355638211743894e-09
0, 7, 21, 5.771546796040639e-09
0, 7, 22, 5.367861266591945e-09
0, 7, 23, 5.629959609620983e-09
0, 7, 24, 4.77453099279046e-09
0, 7, 25, 3.906082568505553e-09
0, 7, 26, 4.527257235764637e-09
0, 7, 27, 8.444968280230114e-09
0, 7, 28, 3.03731417794495e-09
0, 7, 29, 3.070531162663315e-09
0, 7, 30, 5.510243372697232e-09
0, 7, 31, 5.47690071073248e-09
0, 7, 32, 8.942682150347991e-09
0, 7, 33, 5.46668132983541e-09
0, 7, 34, 5.684254400506461e-09
0, 7, 35, 4.66766714168898e-09
0, 7, 36, 2.866298975945369e-09
0, 7, 37, 4.386314422788473e-09
0, 7, 38, 4.590543944971159e-09
0, 7, 39, 3.630395983833523e-09
0, 7, 40, 5.03149832908889e-09
0, 7, 41, 4.149333765468555e-09
0, 7, 42, 3.306427576177384e-09
0, 7, 43, 3.67544106261164e-09
0, 7, 44, 3.922130176192695e-09
0, 7, 45, 9.953073920598854e-10
0, 7, 46, 1.970083207680773e-09
0, 7, 47, 3.243000978869759e-09
0, 7, 48, 4.380650953095255e-09
0, 7, 49, 2.06897143861795e-09
0, 8, 0, 3.520232549902857e-09
0, 8, 1, 3.214351673719307e-09
0, 8, 2, 2.158269118979206e-09
0, 8, 3, 3.195388176280289e-09
0, 8, 4, 4.323432278852124e-09
0, 8, 5, 2.063059278967216e-09
0, 8, 6, 2.708842927745536e-09
0, 8, 7, 3.523581204589732e-09
0, 8, 8, 6.176678724045814e-09
0, 8, 9, 5.725065310713262e-09
0, 8, 10, 7.407268576287152e-09
0, 8, 11, 2.901492601736777e-09
0, 8, 12, 8.233807413660088e-09
0, 8, 13, 2.432558598997048e-09
0, 8, 14, 9.143141355139051e-09
0, 8, 15, 4.387552987594745e-09
0, 8, 16, 5.682328385603341e-09
0, 8, 17, 6.520020967570872e-09
0, 8, 18, 5.719257067937633e-09
0, 8, 19, 2.644052976563671e-09
0, 8, 20, 5.898192600994889e-09
0, 8, 21, 2.343421900974363e-09
0, 8, 22, 5.904299715808747e-09
0, 8, 23, 5.750341980359508e-09
0, 8, 24, 5.444110051655571e-09
0, 8, 25, 4.549430165923241e-09
0, 8, 26, 4.649022056213425e-09
0, 8, 27, 4.930384545076549e-09
0, 8, 28, 5.218672605167285e-09
0, 8, 29, 8.305649501494372e-09
0, 8, 30, 5.927256019333527e-09
0, 8, 31, 5.914128298201149e-09
0, 8, 32, 3.533198400518245e-09
0, 8, 33, 6.888658088399779e-09
0, 8, 34, 3.486873234592736e-09
0, 8, 35, 4.36946967496965e-09
0, 8, 36, 4.783127227625528e-09
0, 8, 37, 3.996319719590247e-09
0, 8, 38, 4.463579283964236e-09
0, 8, 39, 1.857585085751623e-09
0, 8, 40, 3.302078388500718e-09
0, 8, 41, 3.518898283871863e-09
0, 8, 42, 2.627996487092332e-09
0, 8, 43, 2.288551348428314e-09
0, 8, 44, 2.949202881907809e-09
0, 8, 45, 2.61245336474758e-09
0, 8, 46, 1.220161749415638e-09
0, 8, 47, 2.114564967570232e-09
0, 8, 48, 4.082846061237433e-09
0, 8, 49, 4.995699409704457e-09
0, 9, 0, 3.109327906258841e-09
0, 9, 1, 3.308032736626387e-09
0, 9, 2, 2.817361677287522e-09
0, 9, 3, 2.906953788794908e-09
0, 9, 4, 2.865524484363391e-09
0, 9, 5, 5.092380739313285e-09
0, 9, 6, 4.250741536537817e-09
0, 9, 7, 3.598751741051842e-09
0, 9, 8, 7.047432859508262e-09
0, 9, 9, 5.886606313509901e-09
0, 9, 10, 6.610804792472891e-09
0, 9, 11, 2.962991407784443e-09
0, 9, 12, 8.030299092354198e-09
0, 9, 13, 4.668750275271805e-09
0, 9, 14, 3.697338435415531e-09
0, 9, 15, 7.520220890455676e-09
0, 9, 16, 8.560895103926214e-09
0, 9, 17, 6.164078136805529e-09
0, 9, 18, 4.328989167134978e-09
0, 9, 19, 5.552609927406138e-09
0, 9, 20, 5.025916571810285e-09
0, 9, 21, 5.513641543331005e-09
0, 9, 22, 4.091932570560175e-09
0, 9, 23, 6.380780348536064e-09
0, 9, 24, 4.448832413572745e-09
0, 9, 25, 8.625228531400353e-09
0, 9, 26, 4.807805709106105e-09
0, 9, 27, 5.844307704450102e-09
0, 9, 28, 7.451930628121772e-09
0, 9, 29, 4.931119068629641e-09
0, 9, 30, 5.045156736827039e-09
0, 9, 31, 5.831473526285436e-09
0, 9, 32, 5.342513986761332e-09
0, 9, 33, 5.183316886814282e-09
0, 9, 34, 7.460687179161596e-09
0, 9, 35, 4.611259818432245e-09
0, 9, 36, 4.747976678487476e-09
0, 9, 37, 5.388661517002902e-09
0, 9, 38, 6.265154173235032e-09
0, 9, 39, 3.398676451382698e-09
0, 9, 40, 2.639843454943502e-09
0, 9, 41, 3.542848903137497e-09
0, 9, 42, 5.324275687002e-09
0, 9, 43, 5.734162034087831e-09
0, 9, 44, 6.864115054128206e-09
0, 9, 45, 3.156242156521216e-09
0, 9, 46, 5.328395502601779e-09
0, 9, 47, 2.766922468921962e-09
0, 9, 48, 1.506688218633201e-09
0, 9, 49, 1.106293057162588e-09
0, 10, 0, 4.787696461505675e-09
0, 10, 1, 2.407086086009258e-09
0, 10, 2, 3.200544940185068e-09
0, 10, 3, 5.016805193491791e-09
0, 10, 4, 6.994458345843668e-09
0, 10, 5, 3.37779004766503e-09
0, 10, 6, 3.220413713478365e-09
0, 10, 7, 2.910013119361565e-09
0, 10, 8, 4.813949683324381e-09
0, 10, 9, 3.835821438258336e-09
0, 10, 10, 6.881878178432999e-09
0, 10, 11, 7.161387483023418e-09
0, 10, 12, 5.40892663991599e-09
0, 10, 13, 5.35353850139586e-09
0, 10, 14, 4.786600005246555e-09
0, 10, 15, 6.664645280096693e-09
0, 10, 16, 3.933545933421101e-09
0, 10, 17, 2.837127865973343e-09
0, 10, 18, 3.672416148958746e-09
0, 10, 19, 6.173618061211528e-09
0, 10, 20, 4.947899867602246e-09
0, 10, 21, 4.275310772072771e-09
0, 10, 22, 5.024076710213876e-09
0, 10, 23, 5.242821732309721e-09
0, 10, 24, 5.016133730606498e-09
0, 10, 25, 7.70008057315863e-09
0, 10, 26, 3.608186416315107e-09
0, 10, 27, 8.106262328055891e-09
0, 10, 28, 6.160242982389263e-09
0, 10, 29, 4.778420326090327e-09
0, 10, 30, 6.278698894135459e-09
0, 10, 31, 5.629260169115469e-09
0, 10, 32, 3.878492194075989e-09
0, 10, 33, 3.837518747218382e-09
0, 10, 34, 7.676018043412114e-09
0, 10, 35, 1.009544714491994e-08
0, 10, 36, 6.936716534511334e-09
0, 10, 37, 4.994407554193003e-09
0, 10, 38, 4.433769351663841e-09
0, 10, 39, 5.10367881290108e-09
0, 10, 40, 9.981913073886517e-09
0, 10, 41, 3.130111503324429e-09
0, 10, 42, 3.514651458758067e-09
0, 10, 43, 2.981567659432471e-09
0, 10, 44, 4.04239619555824e-09
0, 10, 45, 4.486840232686973e-09
0, 10, 46, 4.023343436188043e-09
0, 10, 47, 4.883013104972633e-09
0, 10, 48, 3.610277410359686e-09
0, 10, 49, 1.799425941584332e-09
0, 11, 0, 4.413764465027725e-09
0, 11, 1, 3.969553130644954e-09
0, 11, 2, 2.970630186283074e-09
0, 11, 3, 5.043450101993585e-09
0, 11, 4, 5.791352730710742e-09
0, 11, 5, 7.674497481957587e-09
0, 11, 6, 4.060559444241107e-09
0, 11, 7, 3.068669096606413e-09
0, 11, 8, 4.008522846987717e-09
0, 11, 9, 5.079442644273513e-09
0, 11, 10, 6.417735676222946e-09
0, 11, 11, 5.988765927611439e-09
0, 11, 12, 5.85035664357747e-09
0, 11, 13, 5.039512362969845e-09
0, 11, 14, 2.759417805364706e-09
0, 11, 15, 4.610850368180763e-09
0, 11, 16, 4.640489770224576e-09
0, 11, 17, 4.939037179241268e-09
0, 11, 18, 4.785325469214285e-09
0, 11, 19, 4.336893066891889e-09
0, 11, 20, 6.496375437592405e-09
0, 11, 21, 6.228713544942366e-09
0, 11, 22, 6.61332366647116e-09
0, 11, 23, 1.117090686619804e-08
0, 11, 24, 6.591480250506265e-09
0, 11, 25, 7.956382219731495e-09
0, 11, 26, 5.46973133452866e-09
0, 11, 27, 8.131475937034338e-09
0, 11, 28, 3.885807675629849e-09
0, 11, 29, 7.056640161096084e-09
0, 11, 30, 5.716480622197651e-09
0, 11, 31, 6.899393945047905e-09
0, 11, 32, 6.142395037045389e-09
0, 11, 33, 8.454137834235098e-09
0, 11, 34, 4.344910209397312e-09
0, 11, 35, 5.024876070791606e-09
0, 11, 36, 5.006313141819874e-09
0, 11, 37, 4.893525140658994e-09
0, 11, 38, 5.882494935605109e-09
0, 11, 39, 4.886168358808618e-09
0, 11, 40, 5.238735223400681e-09
0, 11, 41, 4.941837161709373e-09
0, 11, 42, 5.121021828813355e-09
0, 11, 43, 2.489443096109767e-09
0, 11, 44, 3.578629836908931e-09
0, 11, 45, 5.758270749112171e-09
0, 11, 46, 4.442693768424988e-09
0, 11, 47, 3.543197957256439e-09
0, 11, 48, 4.131761155434788e-09
0, 11, 49, 3.794867975415173e-09
0, 12, 0, 3.494409872573101e-09
0, 12, 1, 1.604006150124349e-09
0, 12, 2, 7.422540360124685e-09
0, 12, 3, 3.8631458032512e-09
0, 12, 4, 2.386239872365081e-09
0, 12, 5, 3.557204752979715e-09
0, 12, 6, 5.847282658066888e-09
0, 12, 7, 4.167276301814127e-09
0, 12, 8, 4.295022559830386e-09
0, 12, 9, 5.665636404472707e-09
0, 12, 10, 6.425344700744517e-09
0, 12, 11, 6.356985160493878e-09
0, 12, 12, 4.282163068580758e-09
0, 12, 13, 8.256699324249439e-09
0, 12, 14, 6.827655329999516e-09
0, 12, 15, 4.472826109491734e-09
0, 12, 16, 6.805690677680332e-09
0, 12, 17, 1.017703432637518e-08
0, 12, 18, 6.118280104772111e-09
0, 12, 19, 7.359487685931754e-09
0, 12, 20, 6.87441081836937e-09
0, 12, 21, 6.663428475661703e-09
0, 12, 22, 7.343767371992271e-09
0, 12, 23, 6.121943396664165e-09
0, 12, 24, 9.228792841042832e-09
0, 12, 25, 6.138349384343655e-09
0, 12, 26, 5.942501157818469e-09
0, 12, 27, 6.900848781299374e-09
0, 12, 28, 5.983185058511253e-09
0, 12, 29, 5.555335746976198e-09
0, 12, 30, 8.909639248599888e-09
0, 12, 31, 9.734007377915077e-09
0, 12, 32, 6.23533669141807e-09
0, 12, 33, 6.843335675910112e-09
0, 12, 34, 4.1773966508174e-09
0, 12, 35, 7.279092884004967e-09
0, 12, 36, 6.265651553150065e-09
0, 12, 37, 6.582509648467294e-09
0, 12, 38, 6.418714004752246e-09
0, 12, 39, 4.057538305346498e-09
0, 12, 40, 5.583266737829717e-09
0, 12, 41, 6.811230690573211e-09
0, 12, 42, 8.190777833760876e-09
0, 12, 43, 5.133192537698505e-09
0, 12, 44, 3.624732070051095e-09
0, 12, 45, 4.373463813323042e-09
0, 12, 46, 3.09542413923225e-09
0, 12, 47, 6.88877532795118e-09
0, 12, 48, 4.944862741496081e-09
0, 12, 49, 3.539373683025815e-09
0, 13, 0, 4.347275428528974e-09
0, 13, 1, 7.040967808791265e-09
0, 13, 2, 5.417412740627015e-09
0, 13, 3, 4.790727370362902e-09
0, 13, 4, 4.813561549354972e-09
0, 13, 5, 4.023138711062302e-09
0, 13, 6, 5.456259000169439e-09
0, 13, 7, 4.984352042214368e-09
0, 13, 8, 6.252052653366036e-09
0, 13, 9, 6.912392880309426e-09
0, 13, 10, 5.064549224442771e-09
0, 13, 11, 4.150731758301163e-09
0, 13, 12, 7.654938016798951e-09
0, 13, 13, 6.761981641290049e-09
0, 13, 14, 5.068931052676362e-09
0, 13, 15, 7.157874293284294e-09
0, 13, 16, 6.952785902569758e-09
0, 13, 17, 7.710944771588402e-09
0, 13, 18, 5.454814377969797e-09
0, 13, 19, 4.279902210413411e-09
0, 13, 20, 1.017963491278806e-08
0, 13, 21, 4.751291360349796e-09
0, 13, 22, 6.809992569856149e-09
0, 13, 23, 9.811063961251421e-09
0, 13, 24, 4.861533842159815e-09
0, 13, 25, 5.408969272480135e-09
0, 13, 26, 1.024059770315944e-08
0, 13, 27, 6.581896805357701e-09
0, 13, 28, 7.170531723943441e-09
0, 13, 29, 4.579871148990833e-09
0, 13, 30, 6.139369013169471e-09
0, 13, 31, 3.822071104053748e-09
0, 13, 32, 7.145528169161253e-09
0, 13, 33, 4.995292623988234e-09
0, 13, 34, 6.927256102073898e-09
0, 13, 35, 7.49159578816716e-09
0, 13, 36, 6.047500278327789e-09
0, 13, 37, 7.810138313857351e-09
0, 13, 38, 1.091151968779513e-08
0, 13, 39, 9.269295553337997e-09
0, 13, 40, 5.063246266701071e-09
0, 13, 41, 6.612189462629203e-09
0, 13, 42, 7.010022340381283e-09
0, 13, 43, 5.176144846075204e-09
0, 13, 44, 4.964723299138996e-09
0, 13, 45, 5.224607413367721e-09
0, 13, 46, 5.173209860487304e-09
0, 13, 47, 6.12142292411022e-09
0, 13, 48, 4.6272088383148e-09
0, 13, 49, 2.832299728083854e-09
0, 14, 0, 4.720111412837014e-09
0, 14, 1, 4.172255874124176e-09
0, 14, 2, 2.636841189840311e-09
0, 14, 3, 2.047807035054916e-09
0, 14, 4, 5.370525801851045e-09
0, 14, 5, 5.363222310705851e-09
0, 14, 6, 5.70703351243651e-09
0, 14, 7, 4.351452975726033e-09
0, 14, 8, 4.101709194515024e-09
0, 14, 9, 7.281325320462884e-09
0, 14, 10, 2.618246286445469e-09
0, 14, 11, 7.056629058865838e-09
0, 14, 12, 4.095514150037616e-09
0, 14, 13, 2.949415600639327e-09
0, 14, 14, 3.98546839974756e-09
0, 14, 15, 8.354480662831065e-09
0, 14, 16, 6.331558388694702e-09
0, 14, 17, 8.958878083831223e-09
0, 14, 18, 5.949984061004443e-09
0, 14, 19, 6.08777650512593e-09
0, 14, 20, 6.649599093577763e-09
0, 14, 21, 6.814329100990335e-09
0, 14, 22, 6.802185925636195e-09
0, 14, 23, 5.680301562449586e-09
0, 14, 24, 8.225050862620265e-09
0, 14, 25, 1.27989574494336e-08
0, 14, 26, 6.640680894065554e-09
0, 14, 27, 7.782279709545037e-09
0, 14, 28, 6.745825675835704e-09
0, 14, 29, 3.113302504686999e-09
0, 14, 30, 9.076982721012428e-09
0, 14, 31, 5.869955632675783e-09
0, 14, 32, 7.808401925046837e-09
0, 14, 33, 6.222811599343459e-09
0, 14, 34, 4.488635685362397e-09
0, 14, 35, 7.413131442035592e-09
0, 14, 36, 7.201660601197091e-09
0, 14, 37, 5.477235109907497e-09
0, 14, 38, 6.370421079537891e-09
0, 14, 39, 6.554665255009695e-09
0, 14, 40, 7.644405997098147e-09
0, 14, 41, 7.239540078529672e-09
0, 14, 42, 4.787645391246542e-09
0, 14, 43, 4.714481249834535e-09
0, 14, 44, 5.201533426202332e-09
0, 14, 45, 8.586600763749175e-09
0, 14, 46, 5.602223573930587e-09
0, 14, 47, 4.435391165458213e-09
0, 14, 48, 9.199200512455263e-09
0, 14, 49, 7.402152224500469e-09
0, 15, 0, 4.495511518598505e-09
0, 15, 1, 2.755117245456518e-09
0, 15, 2, 4.799034503122357e-09
0, 15, 3, 4.120215280067896e-09
0, 15, 4, 7.111662370107297e-09
0, 15, 5, 5.147733794785836e-09
0, 15, 6, 3.570950424247599e-09
0, 15, 7, 4.712783496785278e-09
0, 15, 8, 6.647511874291467e-09
0, 15, 9, 4.263982944507916e-09
0, 15, 10, 5.026880689484869e-09
0, 15, 11, 6.777842287419844e-09
0, 15, 12, 9.08044128777874e-09
0, 15, 13, 7.488731412763627e-09
0, 15, 14, 8.511262805654951e-09
0, 15, 15, 4.853142332450489e-09
0, 15, 16, 4.078697823928223e-09
0, 15, 17, 6.198730417850129e-09
0, 15, 18, 5.738090891327374e-09
0, 15, 19, 6.856405665445209e-09
0, 15, 20, 6.558650955668099e-09
0, 15, 21, 1.026067142362308e-08
0, 15, 22, 4.190763291944677e-09
0, 15, 23, 6.425501908324804e-09
0, 15, 24, 8.024485964597261e-09
0, 15, 25, 1.006395144997896e-08
0, 15, 26, 6.226714699408831e-09
0, 15, 27, 7.62253993258355e-09
0, 15, 28, 4.791228302991613e-09
0, 15, 29, 9.386656785181913e-09
0, 15, 30, 5.58618973300895e-09
0, 15, 31, 8.066392886973972e-09
0, 15, 32, 6.915851447075738e-09
0, 15, 33, 6.315753697805349e-09
0, 15, 34, 4.57448878776745e-09
0, 15, 35, 7.987527972375119e-09
0, 15, 36, 7.507900967596015e-09
0, 15, 37, 6.206344771442218e-09
0, 15, 38, 6.995835022394203e-09
0, 15, 39, 8.127569728344497e-09
0, 15, 40, 5.109932033064979e-09
0, 15, 41, 3.945901827506759e-09
0, 15, 42, 5.292272398094156e-09
0, 15, 43, 5.714495543429621e-09
0, 15, 44, 1.091971757460897e-08
0, 15, 45, 4.484386639802551e-09
0, 15, 46, 7.446498528906886e-09
0, 15, 47, 5.420519144649916e-09
0, 15, 48, 3.424399874774053e-09
0, 15, 49, 3.453270114306406e-09
0, 16, 0, 5.117894552597591e-09
0, 16, 1, 2.646910246539846e-09
0, 16, 2, 4.248235541126633e-09
0, 16, 3, 5.239890299435501e-09
0, 16, 4, 7.381872002554246e-09
0, 16, 5, 5.08202901983168e-09
0, 16, 6, 5.7090483451816e-09
0, 16, 7, 1.041897057518781e-08
0, 16, 8, 3.657123492928349e-09
0, 16, 9, 7.510473132299467e-09
0, 16, 10, 6.200204794026831e-09
0, 16, 11, 7.212195285433154e-09
0, 16, 12, 3.981691421017786e-09
0, 16, 13, 8.207230450807401e-09
0, 16, 14, 6.431818633245712e-09
0, 16, 15, 6.504326410805561e-09
0, 16, 16, 8.368075121722995e-09
0, 16, 17, 5.856601426046382e-09
0, 16, 18, 5.114829448871205e-09
0, 16, 19, 4.729951985638081e-09
0, 16, 20, 5.25076337964947e-09
0, 16, 21, 6.796148532828283e-09
0, 16, 22, 7.8899047295522e-09
0, 16, 23, 8.756028790912751e-09
0, 16, 24, 6.938182028903839e-09
0, 16, 25, 8.706092735621951e-09
0, 16, 26, 6.614577774399777e-09
0, 16, 27, 1.022765516722757e-08
0, 16, 28, 6.85231382746565e-09
0, 16, 29, 6.202885316497486e-09
0, 16, 30, 5.289617632797672e-09
0, 16, 31, 7.755975417467198e-09
0, 16, 32, 7.015322101011634e-09
0, 16, 33, 1.034363972252095e-08
0, 16, 34, 1.075852562593127e-08
0, 16, 35, 5.428530069906401e-09
0, 16, 36, 4.813172971296353e-09
0, 16, 37, 6.749359293678481e-09
0, 16, 38, 5.052076978984132e-09
0, 16, 39, 9.484484309041363e-09
0, 16, 40, 5.800905089614616e-09
0, 16, 41, 7.001998536537712e-09
0, 16, 42, 7.675947877316958e-09
0, 16, 43, 7.591149930874508e-09
0, 16, 44, 1.231266555379307e-08
0, 16, 45, 5.295762495194367e-09
0, 16, 46, 1.024498530455276e-08
0, 16, 47, 3.442125695585219e-09
0, 16, 48, 4.842621859069141e-09
0, 16, 49, 4.346275783717601e-09
0, 17, 0, 4.010801024634247e-09
0, 17, 1, 2.641912688616799e-09
0, 17, 2, 4.604540748687214e-09
0, 17, 3, 7.660203138470933e-09
0, 17, 4, 5.124168644954352e-09
0, 17, 5, 7.895433640214833e-09
0, 17, 6, 6.285367781799778e-09
0, 17, 7, 3.776560397739104e-09
0, 17, 8, 6.023961329759686e-09
0, 17, 9, 6.566046373279733e-09
0, 17, 10, 9.293843028501669e-09
0, 17, 11, 4.102790107651799e-09
0, 17, 12, 7.656841383152369e-09
0, 17, 13, 3.868503295478831e-09
0, 17, 14, 7.182610506362153e-09
0, 17, 15, 1.028915530554286e-08
0, 17, 16, 7.697197546008283e-09
0, 17, 17, 1.133979221634718e-08
0, 17, 18, 5.112184897626548e-09
0, 17, 19, 1.014412642774687e-08
0, 17, 20, 7.743420127326317e-09
0, 17, 21, 1.129553695022878e-08
0, 17, 22, 8.732561340707434e-09
0, 17, 23, 1.151766326756842e-08
0, 17, 24, 6.587308032379724e-09
0, 17, 25, 5.488104193318577e-09
0, 17, 26, 7.693723880208836e-09
0, 17, 27, 4.481563564695534e-09
0, 17, 28, 9.224637942395475e-09
0, 17, 29, 1.083954614955474e-08
0, 17, 30, 8.442054166835078e-09
0, 17, 31, 5.503178801546937e-09
0, 17, 32, 6.325205248458587e-09
0, 17, 33, 4.305482192989984e-09
0, 17, 34, 1.333887222898511e-08
0, 17, 35, 7.277563884855454e-09
0, 17, 36, 5.873677544343536e-09
0, 17, 37, 3.984142793456158e-09
0, 17, 38, 6.565591625928846e-09
0, 17, 39, 7.724286099630717e-09
0, 17, 40, 6.371329686061245e-09
0, 17, 41, 5.529054103448061e-09
0, 17, 42, 3.676377868799818e-09
0, 17, 43, 5.684829940122427e-09
0, 17, 44, 3.174272400485734e-09
0, 17, 45, 5.508866696146697e-09
0, 17, 46, 7.164318915897638e-09
0, 17, 47, 4.839170841819396e-09
0, 17, 48, 3.95392740770717e-09
0, 17, 49, 2.910075735940154e-09
0, 18, 0, 4.891964611175581e-09
0, 18, 1, 3.410770332834545e-09
0, 18, 2, 3.939635284666565e-09
0, 18, 3, 6.109817540789209e-09
0, 18, 4, 3.354919897446962e-09
0, 18, 5, 5.422122750786684e-09
0, 18, 6, 8.247949878636973e-09
0, 18, 7, 1.06372484154349e-08
0, 18, 8, 8.362392556193754e-09
0, 18, 9, 4.886949511728744e-09
0, 18, 10, 9.796583988475049e-09
0, 18, 11, 6.696308396669792e-09
0, 18, 12, 7.23921989020937e-09
0, 18, 13, 6.702546073711346e-09
0, 18, 14, 8.583929123062717e-09
0, 18, 15, 6.744358405086359e-09
0, 18, 16, 7.86063925062308e-09
0, 18, 17, 8.479211999201652e-09
0, 18, 18, 6.662257856504539e-09
0, 18, 19, 7.568422333292801e-09
0, 18, 20, 1.146030026433209e-08
0, 18, 21, 7.552436009916619e-09
0, 18, 22, 5.118645063362237e-09
0, 18, 23, 8.074262147772515e-09
0, 18, 24, 6.952233899681914e-09
